Time,DATA
1,347
2,348
3,349
4,350
5,353
6,353
7,354
8,355
9,357
10,360
11,361
12,361
13,361
14,360
15,360
16,359
17,358
18,357
19,354
20,350
21,348
22,350
23,351
24,349
25,347
26,347
27,349
28,350
29,351
30,352
31,350
32,351
33,352
34,350
35,350
36,351
37,350
38,348
39,348
40,349
41,349
42,349
43,348
44,350
45,352
46,352
47,351
48,351
49,352
50,351
51,350
52,351
53,353
54,353
55,353
56,353
57,354
58,354
59,354
60,355
61,354
62,355
63,355
64,354
65,353
66,353
67,352
68,352
69,353
70,354
71,353
72,354
73,355
74,353
75,353
76,353
77,355
78,359
79,363
80,362
81,361
82,361
83,370
84,380
85,380
86,373
87,370
88,370
89,366
90,357
91,351
92,350
93,352
94,353
95,351
96,350
97,352
98,353
99,352
100,350
101,350
102,351
103,352
104,354
105,353
106,353
107,350
108,345
109,344
110,351
111,380
112,440
113,519
114,581
115,573
116,496
117,406
118,355
119,350
120,355
121,353
122,343
123,335
124,335
125,337
126,338
127,338
128,339
129,340
130,340
131,341
132,339
133,340
134,342
135,342
136,343
137,343
138,341
139,341
140,342
141,341
142,343
143,346
144,347
145,346
146,343
147,345
148,347
149,348
150,349
151,351
152,353
153,353
154,353
155,354
156,355
157,356
158,358
159,359
160,359
161,359
162,358
163,357
164,357
165,357
166,355
167,352
168,349
169,348
170,348
171,348
172,348
173,344
174,344
175,346
176,346
177,346
178,346
179,347
180,348
181,348
182,346
183,344
184,344
185,344
186,343
187,344
188,347
189,348
190,348
191,347
192,349
193,350
194,350
195,350
196,350
197,349
198,349
199,349
200,347
201,346
202,347
203,350
204,349
205,348
206,348
207,348
208,349
209,348
210,347
211,347
212,346
213,348
214,349
215,349
216,348
217,349
218,353
219,356
220,356
221,355
222,359
223,369
224,376
225,369
226,365
227,361
228,359
229,354
230,346
231,345
232,344
233,347
234,345
235,344
236,345
237,345
238,345
239,345
240,346
241,345
242,344
243,344
244,346
245,348
246,347
247,345
248,342
249,344
250,356
251,398
252,467
253,546
254,593
255,556
256,466
257,379
258,347
259,352
260,353
261,344
262,334
263,332
264,331
265,333
266,332
267,336
268,336
269,334
270,336
271,336
272,337
273,336
274,337
275,338
276,337
277,338
278,338
279,339
280,336
281,339
282,340
283,341
284,341
285,341
286,344
287,344
288,347
289,347
290,350
291,352
292,352
293,354
294,353
295,354
296,356
297,360
298,362
299,361
300,362
301,361
302,362
303,359
304,358
305,354
306,351
307,347
308,346
309,349
310,347
311,348
312,347
313,350
314,350
315,348
316,347
317,345
318,346
319,345
320,346
321,341
322,342
323,345
324,344
325,346
326,343
327,345
328,345
329,346
330,346
331,344
332,348
333,348
334,350
335,348
336,346
337,347
338,351
339,352
340,350
341,349
342,347
343,348
344,351
345,351
346,350
347,354
348,354
349,356
350,368
351,347
352,348
353,349
354,350
355,353
356,353
357,354
358,355
359,357
360,360
361,361
362,361
363,361
364,360
365,360
366,359
367,358
368,357
369,354
370,350
371,348
372,350
373,351
374,349
375,347
376,347
377,349
378,350
379,351
380,352
381,350
382,351
383,352
384,350
385,350
386,351
387,350
388,348
389,348
390,349
391,349
392,349
393,348
394,350
395,352
396,352
397,351
398,351
399,352
400,351
401,350
402,351
403,353
404,353
405,353
406,353
407,354
408,354
409,354
410,355
411,354
412,355
413,355
414,354
415,353
416,353
417,352
418,352
419,353
420,354
421,353
422,354
423,355
424,353
425,353
426,353
427,355
428,359
429,363
430,362
431,361
432,361
433,370
434,380
435,380
436,373
437,370
438,370
439,366
440,357
441,351
442,350
443,352
444,353
445,351
446,350
447,352
448,353
449,352
450,350
451,350
452,351
453,352
454,354
455,353
456,353
457,350
458,345
459,344
460,351
461,380
462,440
463,519
464,581
465,573
466,496
467,406
468,355
469,350
470,355
471,353
472,343
473,335
474,335
475,337
476,338
477,338
478,339
479,340
480,340
481,341
482,339
483,340
484,342
485,342
486,343
487,343
488,341
489,341
490,342
491,341
492,343
493,346
494,347
495,346
496,343
497,345
498,347
499,348
500,349
501,351
502,353
503,353
504,353
505,354
506,355
507,356
508,358
509,359
510,359
511,359
512,358
513,357
514,357
515,357
516,355
517,352
518,349
519,348
520,348
521,348
522,348
523,344
524,344
525,346
526,346
527,346
528,346
529,347
530,348
531,348
532,346
533,344
534,344
535,344
536,343
537,344
538,347
539,348
540,348
541,347
542,349
543,350
544,350
545,350
546,350
547,349
548,349
549,349
550,347
551,346
552,347
553,350
554,349
555,348
556,348
557,348
558,349
559,348
560,347
561,347
562,346
563,348
564,349
565,349
566,348
567,349
568,353
569,356
570,356
571,355
572,359
573,369
574,376
575,369
576,365
577,361
578,359
579,354
580,346
581,345
582,344
583,347
584,345
585,344
586,345
587,345
588,345
589,345
590,346
591,345
592,344
593,344
594,346
595,348
596,347
597,345
598,342
599,344
600,356
601,398
602,467
603,546
604,593
605,556
606,466
607,379
608,347
609,352
610,353
611,344
612,334
613,332
614,331
615,333
616,332
617,336
618,336
619,334
620,336
621,336
622,337
623,336
624,337
625,338
626,337
627,338
628,338
629,339
630,336
631,339
632,340
633,341
634,341
635,341
636,344
637,344
638,347
639,347
640,350
641,352
642,352
643,354
644,353
645,354
646,356
647,360
648,362
649,361
650,362
651,361
652,362
653,359
654,358
655,354
656,351
657,347
658,346
659,349
660,347
661,348
662,347
663,350
664,350
665,348
666,347
667,345
668,346
669,345
670,346
671,341
672,342
673,345
674,344
675,346
676,343
677,345
678,345
679,346
680,346
681,344
682,348
683,348
684,350
685,348
686,346
687,347
688,351
689,352
690,350
691,349
692,347
693,348
694,351
695,351
696,350
697,354
698,354
699,356
700,368
701,347
702,348
703,349
704,350
705,353
706,353
707,354
708,355
709,357
710,360
711,361
712,361
713,361
714,360
715,360
716,359
717,358
718,357
719,354
720,350
721,348
722,350
723,351
724,349
725,347
726,347
727,349
728,350
729,351
730,352
731,350
732,351
733,352
734,350
735,350
736,351
737,350
738,348
739,348
740,349
741,349
742,349
743,348
744,350
745,352
746,352
747,351
748,351
749,352
750,351
751,350
752,351
753,353
754,353
755,353
756,353
757,354
758,354
759,354
760,355
761,354
762,355
763,355
764,354
765,353
766,353
767,352
768,352
769,353
770,354
771,353
772,354
773,355
774,353
775,353
776,353
777,355
778,359
779,363
780,362
781,361
782,361
783,370
784,380
785,380
786,373
787,370
788,370
789,366
790,357
791,351
792,350
793,352
794,353
795,351
796,350
797,352
798,353
799,352
800,350
801,350
802,351
803,352
804,354
805,353
806,353
807,350
808,345
809,344
810,351
811,380
812,440
813,519
814,581
815,573
816,496
817,406
818,355
819,350
820,355
821,353
822,343
823,335
824,335
825,337
826,338
827,338
828,339
829,340
830,340
831,341
832,339
833,340
834,342
835,342
836,343
837,343
838,341
839,341
840,342
841,341
842,343
843,346
844,347
845,346
846,343
847,345
848,347
849,348
850,349
851,351
852,353
853,353
854,353
855,354
856,355
857,356
858,358
859,359
860,359
861,359
862,358
863,357
864,357
865,357
866,355
867,352
868,349
869,348
870,348
871,348
872,348
873,344
874,344
875,346
876,346
877,346
878,346
879,347
880,348
881,348
882,346
883,344
884,344
885,344
886,343
887,344
888,347
889,348
890,348
891,347
892,349
893,350
894,350
895,350
896,350
897,349
898,349
899,349
900,347
901,346
902,347
903,350
904,349
905,348
906,348
907,348
908,349
909,348
910,347
911,347
912,346
913,348
914,349
915,349
916,348
917,349
918,353
919,356
920,356
921,355
922,359
923,369
924,376
925,369
926,365
927,361
928,359
929,354
930,346
931,345
932,344
933,347
934,345
935,344
936,345
937,345
938,345
939,345
940,346
941,345
942,344
943,344
944,346
945,348
946,347
947,345
948,342
949,344
950,356
951,398
952,467
953,546
954,593
955,556
956,466
957,379
958,347
959,352
960,353
961,344
962,334
963,332
964,331
965,333
966,332
967,336
968,336
969,334
970,336
971,336
972,337
973,336
974,337
975,338
976,337
977,338
978,338
979,339
980,336
981,339
982,340
983,341
984,341
985,341
986,344
987,344
988,347
989,347
990,350
991,352
992,352
993,354
994,353
995,354
996,356
997,360
998,362
999,361
1000,362
1001,361
1002,362
1003,359
1004,358
1005,354
1006,351
1007,347
1008,346
1009,349
1010,347
1011,348
1012,347
1013,350
1014,350
1015,348
1016,347
1017,345
1018,346
1019,345
1020,346
1021,341
1022,342
1023,345
1024,344
1025,346
1026,343
1027,345
1028,345
1029,346
1030,346
1031,344
1032,348
1033,348
1034,350
1035,348
1036,346
1037,347
1038,351
1039,352
1040,350
1041,349
1042,347
1043,348
1044,351
1045,351
1046,350
1047,354
1048,354
1049,356
1050,368
1051,347
1052,348
1053,349
1054,350
1055,353
1056,353
1057,354
1058,355
1059,357
1060,360
1061,361
1062,361
1063,361
1064,360
1065,360
1066,359
1067,358
1068,357
1069,354
1070,350
1071,348
1072,350
1073,351
1074,349
1075,347
1076,347
1077,349
1078,350
1079,351
1080,352
1081,350
1082,351
1083,352
1084,350
1085,350
1086,351
1087,350
1088,348
1089,348
1090,349
1091,349
1092,349
1093,348
1094,350
1095,352
1096,352
1097,351
1098,351
1099,352
1100,351
1101,350
1102,351
1103,353
1104,353
1105,353
1106,353
1107,354
1108,354
1109,354
1110,355
1111,354
1112,355
1113,355
1114,354
1115,353
1116,353
1117,352
1118,352
1119,353
1120,354
1121,353
1122,354
1123,355
1124,353
1125,353
1126,353
1127,355
1128,359
1129,363
1130,362
1131,361
1132,361
1133,370
1134,380
1135,380
1136,373
1137,370
1138,370
1139,366
1140,357
1141,351
1142,350
1143,352
1144,353
1145,351
1146,350
1147,352
1148,353
1149,352
1150,350
1151,350
1152,351
1153,352
1154,354
1155,353
1156,353
1157,350
1158,345
1159,344
1160,351
1161,380
1162,440
1163,519
1164,581
1165,573
1166,496
1167,406
1168,355
1169,350
1170,355
1171,353
1172,343
1173,335
1174,335
1175,337
1176,338
1177,338
1178,339
1179,340
1180,340
1181,341
1182,339
1183,340
1184,342
1185,342
1186,343
1187,343
1188,341
1189,341
1190,342
1191,341
1192,343
1193,346
1194,347
1195,346
1196,343
1197,345
1198,347
1199,348
1200,349
1201,351
1202,353
1203,353
1204,353
1205,354
1206,355
1207,356
1208,358
1209,359
1210,359
1211,359
1212,358
1213,357
1214,357
1215,357
1216,355
1217,352
1218,349
1219,348
1220,348
1221,348
1222,348
1223,344
1224,344
1225,346
1226,346
1227,346
1228,346
1229,347
1230,348
1231,348
1232,346
1233,344
1234,344
1235,344
1236,343
1237,344
1238,347
1239,348
1240,348
1241,347
1242,349
1243,350
1244,350
1245,350
1246,350
1247,349
1248,349
1249,349
1250,347
1251,346
1252,347
1253,350
1254,349
1255,348
1256,348
1257,348
1258,349
1259,348
1260,347
1261,347
1262,346
1263,348
1264,349
1265,349
1266,348
1267,349
1268,353
1269,356
1270,356
1271,355
1272,359
1273,369
1274,376
1275,369
1276,365
1277,361
1278,359
1279,354
1280,346
1281,345
1282,344
1283,347
1284,345
1285,344
1286,345
1287,345
1288,345
1289,345
1290,346
1291,345
1292,344
1293,344
1294,346
1295,348
1296,347
1297,345
1298,342
1299,344
1300,356
1301,398
1302,467
1303,546
1304,593
1305,556
1306,466
1307,379
1308,347
1309,352
1310,353
1311,344
1312,334
1313,332
1314,331
1315,333
1316,332
1317,336
1318,336
1319,334
1320,336
1321,336
1322,337
1323,336
1324,337
1325,338
1326,337
1327,338
1328,338
1329,339
1330,336
1331,339
1332,340
1333,341
1334,341
1335,341
1336,344
1337,344
1338,347
1339,347
1340,350
1341,352
1342,352
1343,354
1344,353
1345,354
1346,356
1347,360
1348,362
1349,361
1350,362
1351,361
1352,362
1353,359
1354,358
1355,354
1356,351
1357,347
1358,346
1359,349
1360,347
1361,348
1362,347
1363,350
1364,350
1365,348
1366,347
1367,345
1368,346
1369,345
1370,346
1371,341
1372,342
1373,345
1374,344
1375,346
1376,343
1377,345
1378,345
1379,346
1380,346
1381,344
1382,348
1383,348
1384,350
1385,348
1386,346
1387,347
1388,351
1389,352
1390,350
1391,349
1392,347
1393,348
1394,351
1395,351
1396,350
1397,354
1398,354
1399,356
1400,368
1401,347
1402,348
1403,349
1404,350
1405,353
1406,353
1407,354
1408,355
1409,357
1410,360
1411,361
1412,361
1413,361
1414,360
1415,360
1416,359
1417,358
1418,357
1419,354
1420,350
1421,348
1422,350
1423,351
1424,349
1425,347
1426,347
1427,349
1428,350
1429,351
1430,352
1431,350
1432,351
1433,352
1434,350
1435,350
1436,351
1437,350
1438,348
1439,348
1440,349
1441,349
1442,349
1443,348
1444,350
1445,352
1446,352
1447,351
1448,351
1449,352
1450,351
1451,350
1452,351
1453,353
1454,353
1455,353
1456,353
1457,354
1458,354
1459,354
1460,355
1461,354
1462,355
1463,355
1464,354
1465,353
1466,353
1467,352
1468,352
1469,353
1470,354
1471,353
1472,354
1473,355
1474,353
1475,353
1476,353
1477,355
1478,359
1479,363
1480,362
1481,361
1482,361
1483,370
1484,380
1485,380
1486,373
1487,370
1488,370
1489,366
1490,357
1491,351
1492,350
1493,352
1494,353
1495,351
1496,350
1497,352
1498,353
1499,352
1500,350
1501,350
1502,351
1503,352
1504,354
1505,353
1506,353
1507,350
1508,345
1509,344
1510,351
1511,380
1512,440
1513,519
1514,581
1515,573
1516,496
1517,406
1518,355
1519,350
1520,355
1521,353
1522,343
1523,335
1524,335
1525,337
1526,338
1527,338
1528,339
1529,340
1530,340
1531,341
1532,339
1533,340
1534,342
1535,342
1536,343
1537,343
1538,341
1539,341
1540,342
1541,341
1542,343
1543,346
1544,347
1545,346
1546,343
1547,345
1548,347
1549,348
1550,349
1551,351
1552,353
1553,353
1554,353
1555,354
1556,355
1557,356
1558,358
1559,359
1560,359
1561,359
1562,358
1563,357
1564,357
1565,357
1566,355
1567,352
1568,349
1569,348
1570,348
1571,348
1572,348
1573,344
1574,344
1575,346
1576,346
1577,346
1578,346
1579,347
1580,348
1581,348
1582,346
1583,344
1584,344
1585,344
1586,343
1587,344
1588,347
1589,348
1590,348
1591,347
1592,349
1593,350
1594,350
1595,350
1596,350
1597,349
1598,349
1599,349
1600,347
1601,346
1602,347
1603,350
1604,349
1605,348
1606,348
1607,348
1608,349
1609,348
1610,347
1611,347
1612,346
1613,348
1614,349
1615,349
1616,348
1617,349
1618,353
1619,356
1620,356
1621,355
1622,359
1623,369
1624,376
1625,369
1626,365
1627,361
1628,359
1629,354
1630,346
1631,345
1632,344
1633,347
1634,345
1635,344
1636,345
1637,345
1638,345
1639,345
1640,346
1641,345
1642,344
1643,344
1644,346
1645,348
1646,347
1647,345
1648,342
1649,344
1650,356
1651,398
1652,467
1653,546
1654,593
1655,556
1656,466
1657,379
1658,347
1659,352
1660,353
1661,344
1662,334
1663,332
1664,331
1665,333
1666,332
1667,336
1668,336
1669,334
1670,336
1671,336
1672,337
1673,336
1674,337
1675,338
1676,337
1677,338
1678,338
1679,339
1680,336
1681,339
1682,340
1683,341
1684,341
1685,341
1686,344
1687,344
1688,347
1689,347
1690,350
1691,352
1692,352
1693,354
1694,353
1695,354
1696,356
1697,360
1698,362
1699,361
1700,362
1701,361
1702,362
1703,359
1704,358
1705,354
1706,351
1707,347
1708,346
1709,349
1710,347
1711,348
1712,347
1713,350
1714,350
1715,348
1716,347
1717,345
1718,346
1719,345
1720,346
1721,341
1722,342
1723,345
1724,344
1725,346
1726,343
1727,345
1728,345
1729,346
1730,346
1731,344
1732,348
1733,348
1734,350
1735,348
1736,346
1737,347
1738,351
1739,352
1740,350
1741,349
1742,347
1743,348
1744,351
1745,351
1746,350
1747,354
1748,354
1749,356
1750,368
1751,347
1752,348
1753,349
1754,350
1755,353
1756,353
1757,354
1758,355
1759,357
1760,360
1761,361
1762,361
1763,361
1764,360
1765,360
1766,359
1767,358
1768,357
1769,354
1770,350
1771,348
1772,350
1773,351
1774,349
1775,347
1776,347
1777,349
1778,350
1779,351
1780,352
1781,350
1782,351
1783,352
1784,350
1785,350
1786,351
1787,350
1788,348
1789,348
1790,349
1791,349
1792,349
1793,348
1794,350
1795,352
1796,352
1797,351
1798,351
1799,352
1800,351
1801,350
1802,351
1803,353
1804,353
1805,353
1806,353
1807,354
1808,354
1809,354
1810,355
1811,354
1812,355
1813,355
1814,354
1815,353
1816,353
1817,352
1818,352
1819,353
1820,354
1821,353
1822,354
1823,355
1824,353
1825,353
1826,353
1827,355
1828,359
1829,363
1830,362
1831,361
1832,361
1833,370
1834,380
1835,380
1836,373
1837,370
1838,370
1839,366
1840,357
1841,351
1842,350
1843,352
1844,353
1845,351
1846,350
1847,352
1848,353
1849,352
1850,350
1851,350
1852,351
1853,352
1854,354
1855,353
1856,353
1857,350
1858,345
1859,344
1860,351
1861,380
1862,440
1863,519
1864,581
1865,573
1866,496
1867,406
1868,355
1869,350
1870,355
1871,353
1872,343
1873,335
1874,335
1875,337
1876,338
1877,338
1878,339
1879,340
1880,340
1881,341
1882,339
1883,340
1884,342
1885,342
1886,343
1887,343
1888,341
1889,341
1890,342
1891,341
1892,343
1893,346
1894,347
1895,346
1896,343
1897,345
1898,347
1899,348
1900,349
1901,351
1902,353
1903,353
1904,353
1905,354
1906,355
1907,356
1908,358
1909,359
1910,359
1911,359
1912,358
1913,357
1914,357
1915,357
1916,355
1917,352
1918,349
1919,348
1920,348
1921,348
1922,348
1923,344
1924,344
1925,346
1926,346
1927,346
1928,346
1929,347
1930,348
1931,348
1932,346
1933,344
1934,344
1935,344
1936,343
1937,344
1938,347
1939,348
1940,348
1941,347
1942,349
1943,350
1944,350
1945,350
1946,350
1947,349
1948,349
1949,349
1950,347
1951,346
1952,347
1953,350
1954,349
1955,348
1956,348
1957,348
1958,349
1959,348
1960,347
1961,347
1962,346
1963,348
1964,349
1965,349
1966,348
1967,349
1968,353
1969,356
1970,356
1971,355
1972,359
1973,369
1974,376
1975,369
1976,365
1977,361
1978,359
1979,354
1980,346
1981,345
1982,344
1983,347
1984,345
1985,344
1986,345
1987,345
1988,345
1989,345
1990,346
1991,345
1992,344
1993,344
1994,346
1995,348
1996,347
1997,345
1998,342
1999,344
2000,356
2001,398
2002,467
2003,546
2004,593
2005,556
2006,466
2007,379
2008,347
2009,352
2010,353
2011,344
2012,334
2013,332
2014,331
2015,333
2016,332
2017,336
2018,336
2019,334
2020,336
2021,336
2022,337
2023,336
2024,337
2025,338
2026,337
2027,338
2028,338
2029,339
2030,336
2031,339
2032,340
2033,341
2034,341
2035,341
2036,344
2037,344
2038,347
2039,347
2040,350
2041,352
2042,352
2043,354
2044,353
2045,354
2046,356
2047,360
2048,362
2049,361
2050,362
2051,361
2052,362
2053,359
2054,358
2055,354
2056,351
2057,347
2058,346
2059,349
2060,347
2061,348
2062,347
2063,350
2064,350
2065,348
2066,347
2067,345
2068,346
2069,345
2070,346
2071,341
2072,342
2073,345
2074,344
2075,346
2076,343
2077,345
2078,345
2079,346
2080,346
2081,344
2082,348
2083,348
2084,350
2085,348
2086,346
2087,347
2088,351
2089,352
2090,350
2091,349
2092,347
2093,348
2094,351
2095,351
2096,350
2097,354
2098,354
2099,356
2100,368
2101,347
2102,348
2103,349
2104,350
2105,353
2106,353
2107,354
2108,355
2109,357
2110,360
2111,361
2112,361
2113,361
2114,360
2115,360
2116,359
2117,358
2118,357
2119,354
2120,350
2121,348
2122,350
2123,351
2124,349
2125,347
2126,347
2127,349
2128,350
2129,351
2130,352
2131,350
2132,351
2133,352
2134,350
2135,350
2136,351
2137,350
2138,348
2139,348
2140,349
2141,349
2142,349
2143,348
2144,350
2145,352
2146,352
2147,351
2148,351
2149,352
2150,351
2151,350
2152,351
2153,353
2154,353
2155,353
2156,353
2157,354
2158,354
2159,354
2160,355
2161,354
2162,355
2163,355
2164,354
2165,353
2166,353
2167,352
2168,352
2169,353
2170,354
2171,353
2172,354
2173,355
2174,353
2175,353
2176,353
2177,355
2178,359
2179,363
2180,362
2181,361
2182,361
2183,370
2184,380
2185,380
2186,373
2187,370
2188,370
2189,366
2190,357
2191,351
2192,350
2193,352
2194,353
2195,351
2196,350
2197,352
2198,353
2199,352
2200,350
2201,350
2202,351
2203,352
2204,354
2205,353
2206,353
2207,350
2208,345
2209,344
2210,351
2211,380
2212,440
2213,519
2214,581
2215,573
2216,496
2217,406
2218,355
2219,350
2220,355
2221,353
2222,343
2223,335
2224,335
2225,337
2226,338
2227,338
2228,339
2229,340
2230,340
2231,341
2232,339
2233,340
2234,342
2235,342
2236,343
2237,343
2238,341
2239,341
2240,342
2241,341
2242,343
2243,346
2244,347
2245,346
2246,343
2247,345
2248,347
2249,348
2250,349
2251,351
2252,353
2253,353
2254,353
2255,354
2256,355
2257,356
2258,358
2259,359
2260,359
2261,359
2262,358
2263,357
2264,357
2265,357
2266,355
2267,352
2268,349
2269,348
2270,348
2271,348
2272,348
2273,344
2274,344
2275,346
2276,346
2277,346
2278,346
2279,347
2280,348
2281,348
2282,346
2283,344
2284,344
2285,344
2286,343
2287,344
2288,347
2289,348
2290,348
2291,347
2292,349
2293,350
2294,350
2295,350
2296,350
2297,349
2298,349
2299,349
2300,347
2301,346
2302,347
2303,350
2304,349
2305,348
2306,348
2307,348
2308,349
2309,348
2310,347
2311,347
2312,346
2313,348
2314,349
2315,349
2316,348
2317,349
2318,353
2319,356
2320,356
2321,355
2322,359
2323,369
2324,376
2325,369
2326,365
2327,361
2328,359
2329,354
2330,346
2331,345
2332,344
2333,347
2334,345
2335,344
2336,345
2337,345
2338,345
2339,345
2340,346
2341,345
2342,344
2343,344
2344,346
2345,348
2346,347
2347,345
2348,342
2349,344
2350,356
2351,398
2352,467
2353,546
2354,593
2355,556
2356,466
2357,379
2358,347
2359,352
2360,353
2361,344
2362,334
2363,332
2364,331
2365,333
2366,332
2367,336
2368,336
2369,334
2370,336
2371,336
2372,337
2373,336
2374,337
2375,338
2376,337
2377,338
2378,338
2379,339
2380,336
2381,339
2382,340
2383,341
2384,341
2385,341
2386,344
2387,344
2388,347
2389,347
2390,350
2391,352
2392,352
2393,354
2394,353
2395,354
2396,356
2397,360
2398,362
2399,361
2400,362
2401,361
2402,362
2403,359
2404,358
2405,354
2406,351
2407,347
2408,346
2409,349
2410,347
2411,348
2412,347
2413,350
2414,350
2415,348
2416,347
2417,345
2418,346
2419,345
2420,346
2421,341
2422,342
2423,345
2424,344
2425,346
2426,343
2427,345
2428,345
2429,346
2430,346
2431,344
2432,348
2433,348
2434,350
2435,348
2436,346
2437,347
2438,351
2439,352
2440,350
2441,349
2442,347
2443,348
2444,351
2445,351
2446,350
2447,354
2448,354
2449,356
2450,368
2451,347
2452,348
2453,349
2454,350
2455,353
2456,353
2457,354
2458,355
2459,357
2460,360
2461,361
2462,361
2463,361
2464,360
2465,360
2466,359
2467,358
2468,357
2469,354
2470,350
2471,348
2472,350
2473,351
2474,349
2475,347
2476,347
2477,349
2478,350
2479,351
2480,352
2481,350
2482,351
2483,352
2484,350
2485,350
2486,351
2487,350
2488,348
2489,348
2490,349
2491,349
2492,349
2493,348
2494,350
2495,352
2496,352
2497,351
2498,351
2499,352
2500,351
2501,350
2502,351
2503,353
2504,353
2505,353
2506,353
2507,354
2508,354
2509,354
2510,355
2511,354
2512,355
2513,355
2514,354
2515,353
2516,353
2517,352
2518,352
2519,353
2520,354
2521,353
2522,354
2523,355
2524,353
2525,353
2526,353
2527,355
2528,359
2529,363
2530,362
2531,361
2532,361
2533,370
2534,380
2535,380
2536,373
2537,370
2538,370
2539,366
2540,357
2541,351
2542,350
2543,352
2544,353
2545,351
2546,350
2547,352
2548,353
2549,352
2550,350
2551,350
2552,351
2553,352
2554,354
2555,353
2556,353
2557,350
2558,345
2559,344
2560,351
2561,380
2562,440
2563,519
2564,581
2565,573
2566,496
2567,406
2568,355
2569,350
2570,355
2571,353
2572,343
2573,335
2574,335
2575,337
2576,338
2577,338
2578,339
2579,340
2580,340
2581,341
2582,339
2583,340
2584,342
2585,342
2586,343
2587,343
2588,341
2589,341
2590,342
2591,341
2592,343
2593,346
2594,347
2595,346
2596,343
2597,345
2598,347
2599,348
2600,349
2601,351
2602,353
2603,353
2604,353
2605,354
2606,355
2607,356
2608,358
2609,359
2610,359
2611,359
2612,358
2613,357
2614,357
2615,357
2616,355
2617,352
2618,349
2619,348
2620,348
2621,348
2622,348
2623,344
2624,344
2625,346
2626,346
2627,346
2628,346
2629,347
2630,348
2631,348
2632,346
2633,344
2634,344
2635,344
2636,343
2637,344
2638,347
2639,348
2640,348
2641,347
2642,349
2643,350
2644,350
2645,350
2646,350
2647,349
2648,349
2649,349
2650,347
2651,346
2652,347
2653,350
2654,349
2655,348
2656,348
2657,348
2658,349
2659,348
2660,347
2661,347
2662,346
2663,348
2664,349
2665,349
2666,348
2667,349
2668,353
2669,356
2670,356
2671,355
2672,359
2673,369
2674,376
2675,369
2676,365
2677,361
2678,359
2679,354
2680,346
2681,345
2682,344
2683,347
2684,345
2685,344
2686,345
2687,345
2688,345
2689,345
2690,346
2691,345
2692,344
2693,344
2694,346
2695,348
2696,347
2697,345
2698,342
2699,344
2700,356
2701,398
2702,467
2703,546
2704,593
2705,556
2706,466
2707,379
2708,347
2709,352
2710,353
2711,344
2712,334
2713,332
2714,331
2715,333
2716,332
2717,336
2718,336
2719,334
2720,336
2721,336
2722,337
2723,336
2724,337
2725,338
2726,337
2727,338
2728,338
2729,339
2730,336
2731,339
2732,340
2733,341
2734,341
2735,341
2736,344
2737,344
2738,347
2739,347
2740,350
2741,352
2742,352
2743,354
2744,353
2745,354
2746,356
2747,360
2748,362
2749,361
2750,362
2751,361
2752,362
2753,359
2754,358
2755,354
2756,351
2757,347
2758,346
2759,349
2760,347
2761,348
2762,347
2763,350
2764,350
2765,348
2766,347
2767,345
2768,346
2769,345
2770,346
2771,341
2772,342
2773,345
2774,344
2775,346
2776,343
2777,345
2778,345
2779,346
2780,346
2781,344
2782,348
2783,348
2784,350
2785,348
2786,346
2787,347
2788,351
2789,352
2790,350
2791,349
2792,347
2793,348
2794,351
2795,351
2796,350
2797,354
2798,354
2799,356
2800,368
2801,347
2802,348
2803,349
2804,350
2805,353
2806,353
2807,354
2808,355
2809,357
2810,360
2811,361
2812,361
2813,361
2814,360
2815,360
2816,359
2817,358
2818,357
2819,354
2820,350
2821,348
2822,350
2823,351
2824,349
2825,347
2826,347
2827,349
2828,350
2829,351
2830,352
2831,350
2832,351
2833,352
2834,350
2835,350
2836,351
2837,350
2838,348
2839,348
2840,349
2841,349
2842,349
2843,348
2844,350
2845,352
2846,352
2847,351
2848,351
2849,352
2850,351
2851,350
2852,351
2853,353
2854,353
2855,353
2856,353
2857,354
2858,354
2859,354
2860,355
2861,354
2862,355
2863,355
2864,354
2865,353
2866,353
2867,352
2868,352
2869,353
2870,354
2871,353
2872,354
2873,355
2874,353
2875,353
2876,353
2877,355
2878,359
2879,363
2880,362
2881,361
2882,361
2883,370
2884,380
2885,380
2886,373
2887,370
2888,370
2889,366
2890,357
2891,351
2892,350
2893,352
2894,353
2895,351
2896,350
2897,352
2898,353
2899,352
2900,350
2901,350
2902,351
2903,352
2904,354
2905,353
2906,353
2907,350
2908,345
2909,344
2910,351
2911,380
2912,440
2913,519
2914,581
2915,573
2916,496
2917,406
2918,355
2919,350
2920,355
2921,353
2922,343
2923,335
2924,335
2925,337
2926,338
2927,338
2928,339
2929,340
2930,340
2931,341
2932,339
2933,340
2934,342
2935,342
2936,343
2937,343
2938,341
2939,341
2940,342
2941,341
2942,343
2943,346
2944,347
2945,346
2946,343
2947,345
2948,347
2949,348
2950,349
2951,351
2952,353
2953,353
2954,353
2955,354
2956,355
2957,356
2958,358
2959,359
2960,359
2961,359
2962,358
2963,357
2964,357
2965,357
2966,355
2967,352
2968,349
2969,348
2970,348
2971,348
2972,348
2973,344
2974,344
2975,346
2976,346
2977,346
2978,346
2979,347
2980,348
2981,348
2982,346
2983,344
2984,344
2985,344
2986,343
2987,344
2988,347
2989,348
2990,348
2991,347
2992,349
2993,350
2994,350
2995,350
2996,350
2997,349
2998,349
2999,349
3000,347
3001,346
3002,347
3003,350
3004,349
3005,348
3006,348
3007,348
3008,349
3009,348
3010,347
3011,347
3012,346
3013,348
3014,349
3015,349
3016,348
3017,349
3018,353
3019,356
3020,356
3021,355
3022,359
3023,369
3024,376
3025,369
3026,365
3027,361
3028,359
3029,354
3030,346
3031,345
3032,344
3033,347
3034,345
3035,344
3036,345
3037,345
3038,345
3039,345
3040,346
3041,345
3042,344
3043,344
3044,346
3045,348
3046,347
3047,345
3048,342
3049,344
3050,356
3051,398
3052,467
3053,546
3054,593
3055,556
3056,466
3057,379
3058,347
3059,352
3060,353
3061,344
3062,334
3063,332
3064,331
3065,333
3066,332
3067,336
3068,336
3069,334
3070,336
3071,336
3072,337
3073,336
3074,337
3075,338
3076,337
3077,338
3078,338
3079,339
3080,336
3081,339
3082,340
3083,341
3084,341
3085,341
3086,344
3087,344
3088,347
3089,347
3090,350
3091,352
3092,352
3093,354
3094,353
3095,354
3096,356
3097,360
3098,362
3099,361
3100,362
3101,361
3102,362
3103,359
3104,358
3105,354
3106,351
3107,347
3108,346
3109,349
3110,347
3111,348
3112,347
3113,350
3114,350
3115,348
3116,347
3117,345
3118,346
3119,345
3120,346
3121,341
3122,342
3123,345
3124,344
3125,346
3126,343
3127,345
3128,345
3129,346
3130,346
3131,344
3132,348
3133,348
3134,350
3135,348
3136,346
3137,347
3138,351
3139,352
3140,350
3141,349
3142,347
3143,348
3144,351
3145,351
3146,350
3147,354
3148,354
3149,356
3150,368
3151,347
3152,348
3153,349
3154,350
3155,353
3156,353
3157,354
3158,355
3159,357
3160,360
3161,361
3162,361
3163,361
3164,360
3165,360
3166,359
3167,358
3168,357
3169,354
3170,350
3171,348
3172,350
3173,351
3174,349
3175,347
3176,347
3177,349
3178,350
3179,351
3180,352
3181,350
3182,351
3183,352
3184,350
3185,350
3186,351
3187,350
3188,348
3189,348
3190,349
3191,349
3192,349
3193,348
3194,350
3195,352
3196,352
3197,351
3198,351
3199,352
3200,351
3201,350
3202,351
3203,353
3204,353
3205,353
3206,353
3207,354
3208,354
3209,354
3210,355
3211,354
3212,355
3213,355
3214,354
3215,353
3216,353
3217,352
3218,352
3219,353
3220,354
3221,353
3222,354
3223,355
3224,353
3225,353
3226,353
3227,355
3228,359
3229,363
3230,362
3231,361
3232,361
3233,370
3234,380
3235,380
3236,373
3237,370
3238,370
3239,366
3240,357
3241,351
3242,350
3243,352
3244,353
3245,351
3246,350
3247,352
3248,353
3249,352
3250,350
3251,350
3252,351
3253,352
3254,354
3255,353
3256,353
3257,350
3258,345
3259,344
3260,351
3261,380
3262,440
3263,519
3264,581
3265,573
3266,496
3267,406
3268,355
3269,350
3270,355
3271,353
3272,343
3273,335
3274,335
3275,337
3276,338
3277,338
3278,339
3279,340
3280,340
3281,341
3282,339
3283,340
3284,342
3285,342
3286,343
3287,343
3288,341
3289,341
3290,342
3291,341
3292,343
3293,346
3294,347
3295,346
3296,343
3297,345
3298,347
3299,348
3300,349
3301,351
3302,353
3303,353
3304,353
3305,354
3306,355
3307,356
3308,358
3309,359
3310,359
3311,359
3312,358
3313,357
3314,357
3315,357
3316,355
3317,352
3318,349
3319,348
3320,348
3321,348
3322,348
3323,344
3324,344
3325,346
3326,346
3327,346
3328,346
3329,347
3330,348
3331,348
3332,346
3333,344
3334,344
3335,344
3336,343
3337,344
3338,347
3339,348
3340,348
3341,347
3342,349
3343,350
3344,350
3345,350
3346,350
3347,349
3348,349
3349,349
3350,347
3351,346
3352,347
3353,350
3354,349
3355,348
3356,348
3357,348
3358,349
3359,348
3360,347
3361,347
3362,346
3363,348
3364,349
3365,349
3366,348
3367,349
3368,353
3369,356
3370,356
3371,355
3372,359
3373,369
3374,376
3375,369
3376,365
3377,361
3378,359
3379,354
3380,346
3381,345
3382,344
3383,347
3384,345
3385,344
3386,345
3387,345
3388,345
3389,345
3390,346
3391,345
3392,344
3393,344
3394,346
3395,348
3396,347
3397,345
3398,342
3399,344
3400,356
3401,398
3402,467
3403,546
3404,593
3405,556
3406,466
3407,379
3408,347
3409,352
3410,353
3411,344
3412,334
3413,332
3414,331
3415,333
3416,332
3417,336
3418,336
3419,334
3420,336
3421,336
3422,337
3423,336
3424,337
3425,338
3426,337
3427,338
3428,338
3429,339
3430,336
3431,339
3432,340
3433,341
3434,341
3435,341
3436,344
3437,344
3438,347
3439,347
3440,350
3441,352
3442,352
3443,354
3444,353
3445,354
3446,356
3447,360
3448,362
3449,361
3450,362
3451,361
3452,362
3453,359
3454,358
3455,354
3456,351
3457,347
3458,346
3459,349
3460,347
3461,348
3462,347
3463,350
3464,350
3465,348
3466,347
3467,345
3468,346
3469,345
3470,346
3471,341
3472,342
3473,345
3474,344
3475,346
3476,343
3477,345
3478,345
3479,346
3480,346
3481,344
3482,348
3483,348
3484,350
3485,348
3486,346
3487,347
3488,351
3489,352
3490,350
3491,349
3492,347
3493,348
3494,351
3495,351
3496,350
3497,354
3498,354
3499,356
3500,368
3501,347
3502,348
3503,349
3504,350
3505,353
3506,353
3507,354
3508,355
3509,357
3510,360
3511,361
3512,361
3513,361
3514,360
3515,360
3516,359
3517,358
3518,357
3519,354
3520,350
3521,348
3522,350
3523,351
3524,349
3525,347
3526,347
3527,349
3528,350
3529,351
3530,352
3531,350
3532,351
3533,352
3534,350
3535,350
3536,351
3537,350
3538,348
3539,348
3540,349
3541,349
3542,349
3543,348
3544,350
3545,352
3546,352
3547,351
3548,351
3549,352
3550,351
3551,350
3552,351
3553,353
3554,353
3555,353
3556,353
3557,354
3558,354
3559,354
3560,355
3561,354
3562,355
3563,355
3564,354
3565,353
3566,353
3567,352
3568,352
3569,353
3570,354
3571,353
3572,354
3573,355
3574,353
3575,353
3576,353
3577,355
3578,359
3579,363
3580,362
3581,361
3582,361
3583,370
3584,380
3585,380
3586,373
3587,370
3588,370
3589,366
3590,357
3591,351
3592,350
3593,352
3594,353
3595,351
3596,350
3597,352
3598,353
3599,352
3600,350
3601,350
3602,351
3603,352
3604,354
3605,353
3606,353
3607,350
3608,345
3609,344
3610,351
3611,380
3612,440
3613,519
3614,581
3615,573
3616,496
3617,406
3618,355
3619,350
3620,355
3621,353
3622,343
3623,335
3624,335
3625,337
3626,338
3627,338
3628,339
3629,340
3630,340
3631,341
3632,339
3633,340
3634,342
3635,342
3636,343
3637,343
3638,341
3639,341
3640,342
3641,341
3642,343
3643,346
3644,347
3645,346
3646,343
3647,345
3648,347
3649,348
3650,349
3651,351
3652,353
3653,353
3654,353
3655,354
3656,355
3657,356
3658,358
3659,359
3660,359
3661,359
3662,358
3663,357
3664,357
3665,357
3666,355
3667,352
3668,349
3669,348
3670,348
3671,348
3672,348
3673,344
3674,344
3675,346
3676,346
3677,346
3678,346
3679,347
3680,348
3681,348
3682,346
3683,344
3684,344
3685,344
3686,343
3687,344
3688,347
3689,348
3690,348
3691,347
3692,349
3693,350
3694,350
3695,350
3696,350
3697,349
3698,349
3699,349
3700,347
3701,346
3702,347
3703,350
3704,349
3705,348
3706,348
3707,348
3708,349
3709,348
3710,347
3711,347
3712,346
3713,348
3714,349
3715,349
3716,348
3717,349
3718,353
3719,356
3720,356
3721,355
3722,359
3723,369
3724,376
3725,369
3726,365
3727,361
3728,359
3729,354
3730,346
3731,345
3732,344
3733,347
3734,345
3735,344
3736,345
3737,345
3738,345
3739,345
3740,346
3741,345
3742,344
3743,344
3744,346
3745,348
3746,347
3747,345
3748,342
3749,344
3750,356
3751,398
3752,467
3753,546
3754,593
3755,556
3756,466
3757,379
3758,347
3759,352
3760,353
3761,344
3762,334
3763,332
3764,331
3765,333
3766,332
3767,336
3768,336
3769,334
3770,336
3771,336
3772,337
3773,336
3774,337
3775,338
3776,337
3777,338
3778,338
3779,339
3780,336
3781,339
3782,340
3783,341
3784,341
3785,341
3786,344
3787,344
3788,347
3789,347
3790,350
3791,352
3792,352
3793,354
3794,353
3795,354
3796,356
3797,360
3798,362
3799,361
3800,362
3801,361
3802,362
3803,359
3804,358
3805,354
3806,351
3807,347
3808,346
3809,349
3810,347
3811,348
3812,347
3813,350
3814,350
3815,348
3816,347
3817,345
3818,346
3819,345
3820,346
3821,341
3822,342
3823,345
3824,344
3825,346
3826,343
3827,345
3828,345
3829,346
3830,346
3831,344
3832,348
3833,348
3834,350
3835,348
3836,346
3837,347
3838,351
3839,352
3840,350
3841,349
3842,347
3843,348
3844,351
3845,351
3846,350
3847,354
3848,354
3849,356
3850,368
3851,347
3852,348
3853,349
3854,350
3855,353
3856,353
3857,354
3858,355
3859,357
3860,360
3861,361
3862,361
3863,361
3864,360
3865,360
3866,359
3867,358
3868,357
3869,354
3870,350
3871,348
3872,350
3873,351
3874,349
3875,347
3876,347
3877,349
3878,350
3879,351
3880,352
3881,350
3882,351
3883,352
3884,350
3885,350
3886,351
3887,350
3888,348
3889,348
3890,349
3891,349
3892,349
3893,348
3894,350
3895,352
3896,352
3897,351
3898,351
3899,352
3900,351
3901,350
3902,351
3903,353
3904,353
3905,353
3906,353
3907,354
3908,354
3909,354
3910,355
3911,354
3912,355
3913,355
3914,354
3915,353
3916,353
3917,352
3918,352
3919,353
3920,354
3921,353
3922,354
3923,355
3924,353
3925,353
3926,353
3927,355
3928,359
3929,363
3930,362
3931,361
3932,361
3933,370
3934,380
3935,380
3936,373
3937,370
3938,370
3939,366
3940,357
3941,351
3942,350
3943,352
3944,353
3945,351
3946,350
3947,352
3948,353
3949,352
3950,350
3951,350
3952,351
3953,352
3954,354
3955,353
3956,353
3957,350
3958,345
3959,344
3960,351
3961,380
3962,440
3963,519
3964,581
3965,573
3966,496
3967,406
3968,355
3969,350
3970,355
3971,353
3972,343
3973,335
3974,335
3975,337
3976,338
3977,338
3978,339
3979,340
3980,340
3981,341
3982,339
3983,340
3984,342
3985,342
3986,343
3987,343
3988,341
3989,341
3990,342
3991,341
3992,343
3993,346
3994,347
3995,346
3996,343
3997,345
3998,347
3999,348
4000,349
4001,351
4002,353
4003,353
4004,353
4005,354
4006,355
4007,356
4008,358
4009,359
4010,359
4011,359
4012,358
4013,357
4014,357
4015,357
4016,355
4017,352
4018,349
4019,348
4020,348
4021,348
4022,348
4023,344
4024,344
4025,346
4026,346
4027,346
4028,346
4029,347
4030,348
4031,348
4032,346
4033,344
4034,344
4035,344
4036,343
4037,344
4038,347
4039,348
4040,348
4041,347
4042,349
4043,350
4044,350
4045,350
4046,350
4047,349
4048,349
4049,349
4050,347
4051,346
4052,347
4053,350
4054,349
4055,348
4056,348
4057,348
4058,349
4059,348
4060,347
4061,347
4062,346
4063,348
4064,349
4065,349
4066,348
4067,349
4068,353
4069,356
4070,356
4071,355
4072,359
4073,369
4074,376
4075,369
4076,365
4077,361
4078,359
4079,354
4080,346
4081,345
4082,344
4083,347
4084,345
4085,344
4086,345
4087,345
4088,345
4089,345
4090,346
4091,345
4092,344
4093,344
4094,346
4095,348
4096,347
4097,345
4098,342
4099,344
4100,356
4101,398
4102,467
4103,546
4104,593
4105,556
4106,466
4107,379
4108,347
4109,352
4110,353
4111,344
4112,334
4113,332
4114,331
4115,333
4116,332
4117,336
4118,336
4119,334
4120,336
4121,336
4122,337
4123,336
4124,337
4125,338
4126,337
4127,338
4128,338
4129,339
4130,336
4131,339
4132,340
4133,341
4134,341
4135,341
4136,344
4137,344
4138,347
4139,347
4140,350
4141,352
4142,352
4143,354
4144,353
4145,354
4146,356
4147,360
4148,362
4149,361
4150,362
4151,361
4152,362
4153,359
4154,358
4155,354
4156,351
4157,347
4158,346
4159,349
4160,347
4161,348
4162,347
4163,350
4164,350
4165,348
4166,347
4167,345
4168,346
4169,345
4170,346
4171,341
4172,342
4173,345
4174,344
4175,346
4176,343
4177,345
4178,345
4179,346
4180,346
4181,344
4182,348
4183,348
4184,350
4185,348
4186,346
4187,347
4188,351
4189,352
4190,350
4191,349
4192,347
4193,348
4194,351
4195,351
4196,350
4197,354
4198,354
4199,356
4200,368
4201,347
4202,348
4203,349
4204,350
4205,353
4206,353
4207,354
4208,355
4209,357
4210,360
4211,361
4212,361
4213,361
4214,360
4215,360
4216,359
4217,358
4218,357
4219,354
4220,350
4221,348
4222,350
4223,351
4224,349
4225,347
4226,347
4227,349
4228,350
4229,351
4230,352
4231,350
4232,351
4233,352
4234,350
4235,350
4236,351
4237,350
4238,348
4239,348
4240,349
4241,349
4242,349
4243,348
4244,350
4245,352
4246,352
4247,351
4248,351
4249,352
4250,351
4251,350
4252,351
4253,353
4254,353
4255,353
4256,353
4257,354
4258,354
4259,354
4260,355
4261,354
4262,355
4263,355
4264,354
4265,353
4266,353
4267,352
4268,352
4269,353
4270,354
4271,353
4272,354
4273,355
4274,353
4275,353
4276,353
4277,355
4278,359
4279,363
4280,362
4281,361
4282,361
4283,370
4284,380
4285,380
4286,373
4287,370
4288,370
4289,366
4290,357
4291,351
4292,350
4293,352
4294,353
4295,351
4296,350
4297,352
4298,353
4299,352
4300,350
4301,350
4302,351
4303,352
4304,354
4305,353
4306,353
4307,350
4308,345
4309,344
4310,351
4311,380
4312,440
4313,519
4314,581
4315,573
4316,496
4317,406
4318,355
4319,350
4320,355
4321,353
4322,343
4323,335
4324,335
4325,337
4326,338
4327,338
4328,339
4329,340
4330,340
4331,341
4332,339
4333,340
4334,342
4335,342
4336,343
4337,343
4338,341
4339,341
4340,342
4341,341
4342,343
4343,346
4344,347
4345,346
4346,343
4347,345
4348,347
4349,348
4350,349
4351,351
4352,353
4353,353
4354,353
4355,354
4356,355
4357,356
4358,358
4359,359
4360,359
4361,359
4362,358
4363,357
4364,357
4365,357
4366,355
4367,352
4368,349
4369,348
4370,348
4371,348
4372,348
4373,344
4374,344
4375,346
4376,346
4377,346
4378,346
4379,347
4380,348
4381,348
4382,346
4383,344
4384,344
4385,344
4386,343
4387,344
4388,347
4389,348
4390,348
4391,347
4392,349
4393,350
4394,350
4395,350
4396,350
4397,349
4398,349
4399,349
4400,347
4401,346
4402,347
4403,350
4404,349
4405,348
4406,348
4407,348
4408,349
4409,348
4410,347
4411,347
4412,346
4413,348
4414,349
4415,349
4416,348
4417,349
4418,353
4419,356
4420,356
4421,355
4422,359
4423,369
4424,376
4425,369
4426,365
4427,361
4428,359
4429,354
4430,346
4431,345
4432,344
4433,347
4434,345
4435,344
4436,345
4437,345
4438,345
4439,345
4440,346
4441,345
4442,344
4443,344
4444,346
4445,348
4446,347
4447,345
4448,342
4449,344
4450,356
4451,398
4452,467
4453,546
4454,593
4455,556
4456,466
4457,379
4458,347
4459,352
4460,353
4461,344
4462,334
4463,332
4464,331
4465,333
4466,332
4467,336
4468,336
4469,334
4470,336
4471,336
4472,337
4473,336
4474,337
4475,338
4476,337
4477,338
4478,338
4479,339
4480,336
4481,339
4482,340
4483,341
4484,341
4485,341
4486,344
4487,344
4488,347
4489,347
4490,350
4491,352
4492,352
4493,354
4494,353
4495,354
4496,356
4497,360
4498,362
4499,361
4500,362
4501,361
4502,362
4503,359
4504,358
4505,354
4506,351
4507,347
4508,346
4509,349
4510,347
4511,348
4512,347
4513,350
4514,350
4515,348
4516,347
4517,345
4518,346
4519,345
4520,346
4521,341
4522,342
4523,345
4524,344
4525,346
4526,343
4527,345
4528,345
4529,346
4530,346
4531,344
4532,348
4533,348
4534,350
4535,348
4536,346
4537,347
4538,351
4539,352
4540,350
4541,349
4542,347
4543,348
4544,351
4545,351
4546,350
4547,354
4548,354
4549,356
4550,368
4551,347
4552,348
4553,349
4554,350
4555,353
4556,353
4557,354
4558,355
4559,357
4560,360
4561,361
4562,361
4563,361
4564,360
4565,360
4566,359
4567,358
4568,357
4569,354
4570,350
4571,348
4572,350
4573,351
4574,349
4575,347
4576,347
4577,349
4578,350
4579,351
4580,352
4581,350
4582,351
4583,352
4584,350
4585,350
4586,351
4587,350
4588,348
4589,348
4590,349
4591,349
4592,349
4593,348
4594,350
4595,352
4596,352
4597,351
4598,351
4599,352
4600,351
4601,350
4602,351
4603,353
4604,353
4605,353
4606,353
4607,354
4608,354
4609,354
4610,355
4611,354
4612,355
4613,355
4614,354
4615,353
4616,353
4617,352
4618,352
4619,353
4620,354
4621,353
4622,354
4623,355
4624,353
4625,353
4626,353
4627,355
4628,359
4629,363
4630,362
4631,361
4632,361
4633,370
4634,380
4635,380
4636,373
4637,370
4638,370
4639,366
4640,357
4641,351
4642,350
4643,352
4644,353
4645,351
4646,350
4647,352
4648,353
4649,352
4650,350
4651,350
4652,351
4653,352
4654,354
4655,353
4656,353
4657,350
4658,345
4659,344
4660,351
4661,380
4662,440
4663,519
4664,581
4665,573
4666,496
4667,406
4668,355
4669,350
4670,355
4671,353
4672,343
4673,335
4674,335
4675,337
4676,338
4677,338
4678,339
4679,340
4680,340
4681,341
4682,339
4683,340
4684,342
4685,342
4686,343
4687,343
4688,341
4689,341
4690,342
4691,341
4692,343
4693,346
4694,347
4695,346
4696,343
4697,345
4698,347
4699,348
4700,349
4701,351
4702,353
4703,353
4704,353
4705,354
4706,355
4707,356
4708,358
4709,359
4710,359
4711,359
4712,358
4713,357
4714,357
4715,357
4716,355
4717,352
4718,349
4719,348
4720,348
4721,348
4722,348
4723,344
4724,344
4725,346
4726,346
4727,346
4728,346
4729,347
4730,348
4731,348
4732,346
4733,344
4734,344
4735,344
4736,343
4737,344
4738,347
4739,348
4740,348
4741,347
4742,349
4743,350
4744,350
4745,350
4746,350
4747,349
4748,349
4749,349
4750,347
4751,346
4752,347
4753,350
4754,349
4755,348
4756,348
4757,348
4758,349
4759,348
4760,347
4761,347
4762,346
4763,348
4764,349
4765,349
4766,348
4767,349
4768,353
4769,356
4770,356
4771,355
4772,359
4773,369
4774,376
4775,369
4776,365
4777,361
4778,359
4779,354
4780,346
4781,345
4782,344
4783,347
4784,345
4785,344
4786,345
4787,345
4788,345
4789,345
4790,346
4791,345
4792,344
4793,344
4794,346
4795,348
4796,347
4797,345
4798,342
4799,344
4800,356
4801,398
4802,467
4803,546
4804,593
4805,556
4806,466
4807,379
4808,347
4809,352
4810,353
4811,344
4812,334
4813,332
4814,331
4815,333
4816,332
4817,336
4818,336
4819,334
4820,336
4821,336
4822,337
4823,336
4824,337
4825,338
4826,337
4827,338
4828,338
4829,339
4830,336
4831,339
4832,340
4833,341
4834,341
4835,341
4836,344
4837,344
4838,347
4839,347
4840,350
4841,352
4842,352
4843,354
4844,353
4845,354
4846,356
4847,360
4848,362
4849,361
4850,362
4851,361
4852,362
4853,359
4854,358
4855,354
4856,351
4857,347
4858,346
4859,349
4860,347
4861,348
4862,347
4863,350
4864,350
4865,348
4866,347
4867,345
4868,346
4869,345
4870,346
4871,341
4872,342
4873,345
4874,344
4875,346
4876,343
4877,345
4878,345
4879,346
4880,346
4881,344
4882,348
4883,348
4884,350
4885,348
4886,346
4887,347
4888,351
4889,352
4890,350
4891,349
4892,347
4893,348
4894,351
4895,351
4896,350
4897,354
4898,354
4899,356
4900,368
4901,347
4902,348
4903,349
4904,350
4905,353
4906,353
4907,354
4908,355
4909,357
4910,360
4911,361
4912,361
4913,361
4914,360
4915,360
4916,359
4917,358
4918,357
4919,354
4920,350
4921,348
4922,350
4923,351
4924,349
4925,347
4926,347
4927,349
4928,350
4929,351
4930,352
4931,350
4932,351
4933,352
4934,350
4935,350
4936,351
4937,350
4938,348
4939,348
4940,349
4941,349
4942,349
4943,348
4944,350
4945,352
4946,352
4947,351
4948,351
4949,352
4950,351
4951,350
4952,351
4953,353
4954,353
4955,353
4956,353
4957,354
4958,354
4959,354
4960,355
4961,354
4962,355
4963,355
4964,354
4965,353
4966,353
4967,352
4968,352
4969,353
4970,354
4971,353
4972,354
4973,355
4974,353
4975,353
4976,353
4977,355
4978,359
4979,363
4980,362
4981,361
4982,361
4983,370
4984,380
4985,380
4986,373
4987,370
4988,370
4989,366
4990,357
4991,351
4992,350
4993,352
4994,353
4995,351
4996,350
4997,352
4998,353
4999,352
5000,350
5001,350
5002,351
5003,352
5004,354
5005,353
5006,353
5007,350
5008,345
5009,344
5010,351
5011,380
5012,440
5013,519
5014,581
5015,573
5016,496
5017,406
5018,355
5019,350
5020,355
5021,353
5022,343
5023,335
5024,335
5025,337
5026,338
5027,338
5028,339
5029,340
5030,340
5031,341
5032,339
5033,340
5034,342
5035,342
5036,343
5037,343
5038,341
5039,341
5040,342
5041,341
5042,343
5043,346
5044,347
5045,346
5046,343
5047,345
5048,347
5049,348
5050,349
5051,351
5052,353
5053,353
5054,353
5055,354
5056,355
5057,356
5058,358
5059,359
5060,359
5061,359
5062,358
5063,357
5064,357
5065,357
5066,355
5067,352
5068,349
5069,348
5070,348
5071,348
5072,348
5073,344
5074,344
5075,346
5076,346
5077,346
5078,346
5079,347
5080,348
5081,348
5082,346
5083,344
5084,344
5085,344
5086,343
5087,344
5088,347
5089,348
5090,348
5091,347
5092,349
5093,350
5094,350
5095,350
5096,350
5097,349
5098,349
5099,349
5100,347
5101,346
5102,347
5103,350
5104,349
5105,348
5106,348
5107,348
5108,349
5109,348
5110,347
5111,347
5112,346
5113,348
5114,349
5115,349
5116,348
5117,349
5118,353
5119,356
5120,356
5121,355
5122,359
5123,369
5124,376
5125,369
5126,365
5127,361
5128,359
5129,354
5130,346
5131,345
5132,344
5133,347
5134,345
5135,344
5136,345
5137,345
5138,345
5139,345
5140,346
5141,345
5142,344
5143,344
5144,346
5145,348
5146,347
5147,345
5148,342
5149,344
5150,356
5151,398
5152,467
5153,546
5154,593
5155,556
5156,466
5157,379
5158,347
5159,352
5160,353
5161,344
5162,334
5163,332
5164,331
5165,333
5166,332
5167,336
5168,336
5169,334
5170,336
5171,336
5172,337
5173,336
5174,337
5175,338
5176,337
5177,338
5178,338
5179,339
5180,336
5181,339
5182,340
5183,341
5184,341
5185,341
5186,344
5187,344
5188,347
5189,347
5190,350
5191,352
5192,352
5193,354
5194,353
5195,354
5196,356
5197,360
5198,362
5199,361
5200,362
5201,361
5202,362
5203,359
5204,358
5205,354
5206,351
5207,347
5208,346
5209,349
5210,347
5211,348
5212,347
5213,350
5214,350
5215,348
5216,347
5217,345
5218,346
5219,345
5220,346
5221,341
5222,342
5223,345
5224,344
5225,346
5226,343
5227,345
5228,345
5229,346
5230,346
5231,344
5232,348
5233,348
5234,350
5235,348
5236,346
5237,347
5238,351
5239,352
5240,350
5241,349
5242,347
5243,348
5244,351
5245,351
5246,350
5247,354
5248,354
5249,356
5250,368
5251,347
5252,348
5253,349
5254,350
5255,353
5256,353
5257,354
5258,355
5259,357
5260,360
5261,361
5262,361
5263,361
5264,360
5265,360
5266,359
5267,358
5268,357
5269,354
5270,350
5271,348
5272,350
5273,351
5274,349
5275,347
5276,347
5277,349
5278,350
5279,351
5280,352
5281,350
5282,351
5283,352
5284,350
5285,350
5286,351
5287,350
5288,348
5289,348
5290,349
5291,349
5292,349
5293,348
5294,350
5295,352
5296,352
5297,351
5298,351
5299,352
5300,351
5301,350
5302,351
5303,353
5304,353
5305,353
5306,353
5307,354
5308,354
5309,354
5310,355
5311,354
5312,355
5313,355
5314,354
5315,353
5316,353
5317,352
5318,352
5319,353
5320,354
5321,353
5322,354
5323,355
5324,353
5325,353
5326,353
5327,355
5328,359
5329,363
5330,362
5331,361
5332,361
5333,370
5334,380
5335,380
5336,373
5337,370
5338,370
5339,366
5340,357
5341,351
5342,350
5343,352
5344,353
5345,351
5346,350
5347,352
5348,353
5349,352
5350,350
5351,350
5352,351
5353,352
5354,354
5355,353
5356,353
5357,350
5358,345
5359,344
5360,351
5361,380
5362,440
5363,519
5364,581
5365,573
5366,496
5367,406
5368,355
5369,350
5370,355
5371,353
5372,343
5373,335
5374,335
5375,337
5376,338
5377,338
5378,339
5379,340
5380,340
5381,341
5382,339
5383,340
5384,342
5385,342
5386,343
5387,343
5388,341
5389,341
5390,342
5391,341
5392,343
5393,346
5394,347
5395,346
5396,343
5397,345
5398,347
5399,348
5400,349
5401,351
5402,353
5403,353
5404,353
5405,354
5406,355
5407,356
5408,358
5409,359
5410,359
5411,359
5412,358
5413,357
5414,357
5415,357
5416,355
5417,352
5418,349
5419,348
5420,348
5421,348
5422,348
5423,344
5424,344
5425,346
5426,346
5427,346
5428,346
5429,347
5430,348
5431,348
5432,346
5433,344
5434,344
5435,344
5436,343
5437,344
5438,347
5439,348
5440,348
5441,347
5442,349
5443,350
5444,350
5445,350
5446,350
5447,349
5448,349
5449,349
5450,347
5451,346
5452,347
5453,350
5454,349
5455,348
5456,348
5457,348
5458,349
5459,348
5460,347
5461,347
5462,346
5463,348
5464,349
5465,349
5466,348
5467,349
5468,353
5469,356
5470,356
5471,355
5472,359
5473,369
5474,376
5475,369
5476,365
5477,361
5478,359
5479,354
5480,346
5481,345
5482,344
5483,347
5484,345
5485,344
5486,345
5487,345
5488,345
5489,345
5490,346
5491,345
5492,344
5493,344
5494,346
5495,348
5496,347
5497,345
5498,342
5499,344
5500,356
5501,398
5502,467
5503,546
5504,593
5505,556
5506,466
5507,379
5508,347
5509,352
5510,353
5511,344
5512,334
5513,332
5514,331
5515,333
5516,332
5517,336
5518,336
5519,334
5520,336
5521,336
5522,337
5523,336
5524,337
5525,338
5526,337
5527,338
5528,338
5529,339
5530,336
5531,339
5532,340
5533,341
5534,341
5535,341
5536,344
5537,344
5538,347
5539,347
5540,350
5541,352
5542,352
5543,354
5544,353
5545,354
5546,356
5547,360
5548,362
5549,361
5550,362
5551,361
5552,362
5553,359
5554,358
5555,354
5556,351
5557,347
5558,346
5559,349
5560,347
5561,348
5562,347
5563,350
5564,350
5565,348
5566,347
5567,345
5568,346
5569,345
5570,346
5571,341
5572,342
5573,345
5574,344
5575,346
5576,343
5577,345
5578,345
5579,346
5580,346
5581,344
5582,348
5583,348
5584,350
5585,348
5586,346
5587,347
5588,351
5589,352
5590,350
5591,349
5592,347
5593,348
5594,351
5595,351
5596,350
5597,354
5598,354
5599,356
5600,368
5601,347
5602,348
5603,349
5604,350
5605,353
5606,353
5607,354
5608,355
5609,357
5610,360
5611,361
5612,361
5613,361
5614,360
5615,360
5616,359
5617,358
5618,357
5619,354
5620,350
5621,348
5622,350
5623,351
5624,349
5625,347
5626,347
5627,349
5628,350
5629,351
5630,352
5631,350
5632,351
5633,352
5634,350
5635,350
5636,351
5637,350
5638,348
5639,348
5640,349
5641,349
5642,349
5643,348
5644,350
5645,352
5646,352
5647,351
5648,351
5649,352
5650,351
5651,350
5652,351
5653,353
5654,353
5655,353
5656,353
5657,354
5658,354
5659,354
5660,355
5661,354
5662,355
5663,355
5664,354
5665,353
5666,353
5667,352
5668,352
5669,353
5670,354
5671,353
5672,354
5673,355
5674,353
5675,353
5676,353
5677,355
5678,359
5679,363
5680,362
5681,361
5682,361
5683,370
5684,380
5685,380
5686,373
5687,370
5688,370
5689,366
5690,357
5691,351
5692,350
5693,352
5694,353
5695,351
5696,350
5697,352
5698,353
5699,352
5700,350
5701,350
5702,351
5703,352
5704,354
5705,353
5706,353
5707,350
5708,345
5709,344
5710,351
5711,380
5712,440
5713,519
5714,581
5715,573
5716,496
5717,406
5718,355
5719,350
5720,355
5721,353
5722,343
5723,335
5724,335
5725,337
5726,338
5727,338
5728,339
5729,340
5730,340
5731,341
5732,339
5733,340
5734,342
5735,342
5736,343
5737,343
5738,341
5739,341
5740,342
5741,341
5742,343
5743,346
5744,347
5745,346
5746,343
5747,345
5748,347
5749,348
5750,349
5751,351
5752,353
5753,353
5754,353
5755,354
5756,355
5757,356
5758,358
5759,359
5760,359
5761,359
5762,358
5763,357
5764,357
5765,357
5766,355
5767,352
5768,349
5769,348
5770,348
5771,348
5772,348
5773,344
5774,344
5775,346
5776,346
5777,346
5778,346
5779,347
5780,348
5781,348
5782,346
5783,344
5784,344
5785,344
5786,343
5787,344
5788,347
5789,348
5790,348
5791,347
5792,349
5793,350
5794,350
5795,350
5796,350
5797,349
5798,349
5799,349
5800,347
5801,346
5802,347
5803,350
5804,349
5805,348
5806,348
5807,348
5808,349
5809,348
5810,347
5811,347
5812,346
5813,348
5814,349
5815,349
5816,348
5817,349
5818,353
5819,356
5820,356
5821,355
5822,359
5823,369
5824,376
5825,369
5826,365
5827,361
5828,359
5829,354
5830,346
5831,345
5832,344
5833,347
5834,345
5835,344
5836,345
5837,345
5838,345
5839,345
5840,346
5841,345
5842,344
5843,344
5844,346
5845,348
5846,347
5847,345
5848,342
5849,344
5850,356
5851,398
5852,467
5853,546
5854,593
5855,556
5856,466
5857,379
5858,347
5859,352
5860,353
5861,344
5862,334
5863,332
5864,331
5865,333
5866,332
5867,336
5868,336
5869,334
5870,336
5871,336
5872,337
5873,336
5874,337
5875,338
5876,337
5877,338
5878,338
5879,339
5880,336
5881,339
5882,340
5883,341
5884,341
5885,341
5886,344
5887,344
5888,347
5889,347
5890,350
5891,352
5892,352
5893,354
5894,353
5895,354
5896,356
5897,360
5898,362
5899,361
5900,362
5901,361
5902,362
5903,359
5904,358
5905,354
5906,351
5907,347
5908,346
5909,349
5910,347
5911,348
5912,347
5913,350
5914,350
5915,348
5916,347
5917,345
5918,346
5919,345
5920,346
5921,341
5922,342
5923,345
5924,344
5925,346
5926,343
5927,345
5928,345
5929,346
5930,346
5931,344
5932,348
5933,348
5934,350
5935,348
5936,346
5937,347
5938,351
5939,352
5940,350
5941,349
5942,347
5943,348
5944,351
5945,351
5946,350
5947,354
5948,354
5949,356
5950,368
5951,347
5952,348
5953,349
5954,350
5955,353
5956,353
5957,354
5958,355
5959,357
5960,360
5961,361
5962,361
5963,361
5964,360
5965,360
5966,359
5967,358
5968,357
5969,354
5970,350
5971,348
5972,350
5973,351
5974,349
5975,347
5976,347
5977,349
5978,350
5979,351
5980,352
5981,350
5982,351
5983,352
5984,350
5985,350
5986,351
5987,350
5988,348
5989,348
5990,349
5991,349
5992,349
5993,348
5994,350
5995,352
5996,352
5997,351
5998,351
5999,352
6000,351
6001,350
6002,351
6003,353
6004,353
6005,353
6006,353
6007,354
6008,354
6009,354
6010,355
6011,354
6012,355
6013,355
6014,354
6015,353
6016,353
6017,352
6018,352
6019,353
6020,354
6021,353
6022,354
6023,355
6024,353
6025,353
6026,353
6027,355
6028,359
6029,363
6030,362
6031,361
6032,361
6033,370
6034,380
6035,380
6036,373
6037,370
6038,370
6039,366
6040,357
6041,351
6042,350
6043,352
6044,353
6045,351
6046,350
6047,352
6048,353
6049,352
6050,350
6051,350
6052,351
6053,352
6054,354
6055,353
6056,353
6057,350
6058,345
6059,344
6060,351
6061,380
6062,440
6063,519
6064,581
6065,573
6066,496
6067,406
6068,355
6069,350
6070,355
6071,353
6072,343
6073,335
6074,335
6075,337
6076,338
6077,338
6078,339
6079,340
6080,340
6081,341
6082,339
6083,340
6084,342
6085,342
6086,343
6087,343
6088,341
6089,341
6090,342
6091,341
6092,343
6093,346
6094,347
6095,346
6096,343
6097,345
6098,347
6099,348
6100,349
6101,351
6102,353
6103,353
6104,353
6105,354
6106,355
6107,356
6108,358
6109,359
6110,359
6111,359
6112,358
6113,357
6114,357
6115,357
6116,355
6117,352
6118,349
6119,348
6120,348
6121,348
6122,348
6123,344
6124,344
6125,346
6126,346
6127,346
6128,346
6129,347
6130,348
6131,348
6132,346
6133,344
6134,344
6135,344
6136,343
6137,344
6138,347
6139,348
6140,348
6141,347
6142,349
6143,350
6144,350
6145,350
6146,350
6147,349
6148,349
6149,349
6150,347
6151,346
6152,347
6153,350
6154,349
6155,348
6156,348
6157,348
6158,349
6159,348
6160,347
6161,347
6162,346
6163,348
6164,349
6165,349
6166,348
6167,349
6168,353
6169,356
6170,356
6171,355
6172,359
6173,369
6174,376
6175,369
6176,365
6177,361
6178,359
6179,354
6180,346
6181,345
6182,344
6183,347
6184,345
6185,344
6186,345
6187,345
6188,345
6189,345
6190,346
6191,345
6192,344
6193,344
6194,346
6195,348
6196,347
6197,345
6198,342
6199,344
6200,356
6201,398
6202,467
6203,546
6204,593
6205,556
6206,466
6207,379
6208,347
6209,352
6210,353
6211,344
6212,334
6213,332
6214,331
6215,333
6216,332
6217,336
6218,336
6219,334
6220,336
6221,336
6222,337
6223,336
6224,337
6225,338
6226,337
6227,338
6228,338
6229,339
6230,336
6231,339
6232,340
6233,341
6234,341
6235,341
6236,344
6237,344
6238,347
6239,347
6240,350
6241,352
6242,352
6243,354
6244,353
6245,354
6246,356
6247,360
6248,362
6249,361
6250,362
6251,361
6252,362
6253,359
6254,358
6255,354
6256,351
6257,347
6258,346
6259,349
6260,347
6261,348
6262,347
6263,350
6264,350
6265,348
6266,347
6267,345
6268,346
6269,345
6270,346
6271,341
6272,342
6273,345
6274,344
6275,346
6276,343
6277,345
6278,345
6279,346
6280,346
6281,344
6282,348
6283,348
6284,350
6285,348
6286,346
6287,347
6288,351
6289,352
6290,350
6291,349
6292,347
6293,348
6294,351
6295,351
6296,350
6297,354
6298,354
6299,356
6300,368
6301,347
6302,348
6303,349
6304,350
6305,353
6306,353
6307,354
6308,355
6309,357
6310,360
6311,361
6312,361
6313,361
6314,360
6315,360
6316,359
6317,358
6318,357
6319,354
6320,350
6321,348
6322,350
6323,351
6324,349
6325,347
6326,347
6327,349
6328,350
6329,351
6330,352
6331,350
6332,351
6333,352
6334,350
6335,350
6336,351
6337,350
6338,348
6339,348
6340,349
6341,349
6342,349
6343,348
6344,350
6345,352
6346,352
6347,351
6348,351
6349,352
6350,351
6351,350
6352,351
6353,353
6354,353
6355,353
6356,353
6357,354
6358,354
6359,354
6360,355
6361,354
6362,355
6363,355
6364,354
6365,353
6366,353
6367,352
6368,352
6369,353
6370,354
6371,353
6372,354
6373,355
6374,353
6375,353
6376,353
6377,355
6378,359
6379,363
6380,362
6381,361
6382,361
6383,370
6384,380
6385,380
6386,373
6387,370
6388,370
6389,366
6390,357
6391,351
6392,350
6393,352
6394,353
6395,351
6396,350
6397,352
6398,353
6399,352
6400,350
6401,350
6402,351
6403,352
6404,354
6405,353
6406,353
6407,350
6408,345
6409,344
6410,351
6411,380
6412,440
6413,519
6414,581
6415,573
6416,496
6417,406
6418,355
6419,350
6420,355
6421,353
6422,343
6423,335
6424,335
6425,337
6426,338
6427,338
6428,339
6429,340
6430,340
6431,341
6432,339
6433,340
6434,342
6435,342
6436,343
6437,343
6438,341
6439,341
6440,342
6441,341
6442,343
6443,346
6444,347
6445,346
6446,343
6447,345
6448,347
6449,348
6450,349
6451,351
6452,353
6453,353
6454,353
6455,354
6456,355
6457,356
6458,358
6459,359
6460,359
6461,359
6462,358
6463,357
6464,357
6465,357
6466,355
6467,352
6468,349
6469,348
6470,348
6471,348
6472,348
6473,344
6474,344
6475,346
6476,346
6477,346
6478,346
6479,347
6480,348
6481,348
6482,346
6483,344
6484,344
6485,344
6486,343
6487,344
6488,347
6489,348
6490,348
6491,347
6492,349
6493,350
6494,350
6495,350
6496,350
6497,349
6498,349
6499,349
6500,347
6501,346
6502,347
6503,350
6504,349
6505,348
6506,348
6507,348
6508,349
6509,348
6510,347
6511,347
6512,346
6513,348
6514,349
6515,349
6516,348
6517,349
6518,353
6519,356
6520,356
6521,355
6522,359
6523,369
6524,376
6525,369
6526,365
6527,361
6528,359
6529,354
6530,346
6531,345
6532,344
6533,347
6534,345
6535,344
6536,345
6537,345
6538,345
6539,345
6540,346
6541,345
6542,344
6543,344
6544,346
6545,348
6546,347
6547,345
6548,342
6549,344
6550,356
6551,398
6552,467
6553,546
6554,593
6555,556
6556,466
6557,379
6558,347
6559,352
6560,353
6561,344
6562,334
6563,332
6564,331
6565,333
6566,332
6567,336
6568,336
6569,334
6570,336
6571,336
6572,337
6573,336
6574,337
6575,338
6576,337
6577,338
6578,338
6579,339
6580,336
6581,339
6582,340
6583,341
6584,341
6585,341
6586,344
6587,344
6588,347
6589,347
6590,350
6591,352
6592,352
6593,354
6594,353
6595,354
6596,356
6597,360
6598,362
6599,361
6600,362
6601,361
6602,362
6603,359
6604,358
6605,354
6606,351
6607,347
6608,346
6609,349
6610,347
6611,348
6612,347
6613,350
6614,350
6615,348
6616,347
6617,345
6618,346
6619,345
6620,346
6621,341
6622,342
6623,345
6624,344
6625,346
6626,343
6627,345
6628,345
6629,346
6630,346
6631,344
6632,348
6633,348
6634,350
6635,348
6636,346
6637,347
6638,351
6639,352
6640,350
6641,349
6642,347
6643,348
6644,351
6645,351
6646,350
6647,354
6648,354
6649,356
6650,368
6651,347
6652,348
6653,349
6654,350
6655,353
6656,353
6657,354
6658,355
6659,357
6660,360
6661,361
6662,361
6663,361
6664,360
6665,360
6666,359
6667,358
6668,357
6669,354
6670,350
6671,348
6672,350
6673,351
6674,349
6675,347
6676,347
6677,349
6678,350
6679,351
6680,352
6681,350
6682,351
6683,352
6684,350
6685,350
6686,351
6687,350
6688,348
6689,348
6690,349
6691,349
6692,349
6693,348
6694,350
6695,352
6696,352
6697,351
6698,351
6699,352
6700,351
6701,350
6702,351
6703,353
6704,353
6705,353
6706,353
6707,354
6708,354
6709,354
6710,355
6711,354
6712,355
6713,355
6714,354
6715,353
6716,353
6717,352
6718,352
6719,353
6720,354
6721,353
6722,354
6723,355
6724,353
6725,353
6726,353
6727,355
6728,359
6729,363
6730,362
6731,361
6732,361
6733,370
6734,380
6735,380
6736,373
6737,370
6738,370
6739,366
6740,357
6741,351
6742,350
6743,352
6744,353
6745,351
6746,350
6747,352
6748,353
6749,352
6750,350
6751,350
6752,351
6753,352
6754,354
6755,353
6756,353
6757,350
6758,345
6759,344
6760,351
6761,380
6762,440
6763,519
6764,581
6765,573
6766,496
6767,406
6768,355
6769,350
6770,355
6771,353
6772,343
6773,335
6774,335
6775,337
6776,338
6777,338
6778,339
6779,340
6780,340
6781,341
6782,339
6783,340
6784,342
6785,342
6786,343
6787,343
6788,341
6789,341
6790,342
6791,341
6792,343
6793,346
6794,347
6795,346
6796,343
6797,345
6798,347
6799,348
6800,349
6801,351
6802,353
6803,353
6804,353
6805,354
6806,355
6807,356
6808,358
6809,359
6810,359
6811,359
6812,358
6813,357
6814,357
6815,357
6816,355
6817,352
6818,349
6819,348
6820,348
6821,348
6822,348
6823,344
6824,344
6825,346
6826,346
6827,346
6828,346
6829,347
6830,348
6831,348
6832,346
6833,344
6834,344
6835,344
6836,343
6837,344
6838,347
6839,348
6840,348
6841,347
6842,349
6843,350
6844,350
6845,350
6846,350
6847,349
6848,349
6849,349
6850,347
6851,346
6852,347
6853,350
6854,349
6855,348
6856,348
6857,348
6858,349
6859,348
6860,347
6861,347
6862,346
6863,348
6864,349
6865,349
6866,348
6867,349
6868,353
6869,356
6870,356
6871,355
6872,359
6873,369
6874,376
6875,369
6876,365
6877,361
6878,359
6879,354
6880,346
6881,345
6882,344
6883,347
6884,345
6885,344
6886,345
6887,345
6888,345
6889,345
6890,346
6891,345
6892,344
6893,344
6894,346
6895,348
6896,347
6897,345
6898,342
6899,344
6900,356
6901,398
6902,467
6903,546
6904,593
6905,556
6906,466
6907,379
6908,347
6909,352
6910,353
6911,344
6912,334
6913,332
6914,331
6915,333
6916,332
6917,336
6918,336
6919,334
6920,336
6921,336
6922,337
6923,336
6924,337
6925,338
6926,337
6927,338
6928,338
6929,339
6930,336
6931,339
6932,340
6933,341
6934,341
6935,341
6936,344
6937,344
6938,347
6939,347
6940,350
6941,352
6942,352
6943,354
6944,353
6945,354
6946,356
6947,360
6948,362
6949,361
6950,362
6951,361
6952,362
6953,359
6954,358
6955,354
6956,351
6957,347
6958,346
6959,349
6960,347
6961,348
6962,347
6963,350
6964,350
6965,348
6966,347
6967,345
6968,346
6969,345
6970,346
6971,341
6972,342
6973,345
6974,344
6975,346
6976,343
6977,345
6978,345
6979,346
6980,346
6981,344
6982,348
6983,348
6984,350
6985,348
6986,346
6987,347
6988,351
6989,352
6990,350
6991,349
6992,347
6993,348
6994,351
6995,351
6996,350
6997,354
6998,354
6999,356
7000,368
7001,347
7002,348
7003,349
7004,350
7005,353
7006,353
7007,354
7008,355
7009,357
7010,360
7011,361
7012,361
7013,361
7014,360
7015,360
7016,359
7017,358
7018,357
7019,354
7020,350
7021,348
7022,350
7023,351
7024,349
7025,347
7026,347
7027,349
7028,350
7029,351
7030,352
7031,350
7032,351
7033,352
7034,350
7035,350
7036,351
7037,350
7038,348
7039,348
7040,349
7041,349
7042,349
7043,348
7044,350
7045,352
7046,352
7047,351
7048,351
7049,352
7050,351
7051,350
7052,351
7053,353
7054,353
7055,353
7056,353
7057,354
7058,354
7059,354
7060,355
7061,354
7062,355
7063,355
7064,354
7065,353
7066,353
7067,352
7068,352
7069,353
7070,354
7071,353
7072,354
7073,355
7074,353
7075,353
7076,353
7077,355
7078,359
7079,363
7080,362
7081,361
7082,361
7083,370
7084,380
7085,380
7086,373
7087,370
7088,370
7089,366
7090,357
7091,351
7092,350
7093,352
7094,353
7095,351
7096,350
7097,352
7098,353
7099,352
7100,350
7101,350
7102,351
7103,352
7104,354
7105,353
7106,353
7107,350
7108,345
7109,344
7110,351
7111,380
7112,440
7113,519
7114,581
7115,573
7116,496
7117,406
7118,355
7119,350
7120,355
7121,353
7122,343
7123,335
7124,335
7125,337
7126,338
7127,338
7128,339
7129,340
7130,340
7131,341
7132,339
7133,340
7134,342
7135,342
7136,343
7137,343
7138,341
7139,341
7140,342
7141,341
7142,343
7143,346
7144,347
7145,346
7146,343
7147,345
7148,347
7149,348
7150,349
7151,351
7152,353
7153,353
7154,353
7155,354
7156,355
7157,356
7158,358
7159,359
7160,359
7161,359
7162,358
7163,357
7164,357
7165,357
7166,355
7167,352
7168,349
7169,348
7170,348
7171,348
7172,348
7173,344
7174,344
7175,346
7176,346
7177,346
7178,346
7179,347
7180,348
7181,348
7182,346
7183,344
7184,344
7185,344
7186,343
7187,344
7188,347
7189,348
7190,348
7191,347
7192,349
7193,350
7194,350
7195,350
7196,350
7197,349
7198,349
7199,349
7200,347
7201,346
7202,347
7203,350
7204,349
7205,348
7206,348
7207,348
7208,349
7209,348
7210,347
7211,347
7212,346
7213,348
7214,349
7215,349
7216,348
7217,349
7218,353
7219,356
7220,356
7221,355
7222,359
7223,369
7224,376
7225,369
7226,365
7227,361
7228,359
7229,354
7230,346
7231,345
7232,344
7233,347
7234,345
7235,344
7236,345
7237,345
7238,345
7239,345
7240,346
7241,345
7242,344
7243,344
7244,346
7245,348
7246,347
7247,345
7248,342
7249,344
7250,356
7251,398
7252,467
7253,546
7254,593
7255,556
7256,466
7257,379
7258,347
7259,352
7260,353
7261,344
7262,334
7263,332
7264,331
7265,333
7266,332
7267,336
7268,336
7269,334
7270,336
7271,336
7272,337
7273,336
7274,337
7275,338
7276,337
7277,338
7278,338
7279,339
7280,336
7281,339
7282,340
7283,341
7284,341
7285,341
7286,344
7287,344
7288,347
7289,347
7290,350
7291,352
7292,352
7293,354
7294,353
7295,354
7296,356
7297,360
7298,362
7299,361
7300,362
7301,361
7302,362
7303,359
7304,358
7305,354
7306,351
7307,347
7308,346
7309,349
7310,347
7311,348
7312,347
7313,350
7314,350
7315,348
7316,347
7317,345
7318,346
7319,345
7320,346
7321,341
7322,342
7323,345
7324,344
7325,346
7326,343
7327,345
7328,345
7329,346
7330,346
7331,344
7332,348
7333,348
7334,350
7335,348
7336,346
7337,347
7338,351
7339,352
7340,350
7341,349
7342,347
7343,348
7344,351
7345,351
7346,350
7347,354
7348,354
7349,356
7350,368
7351,347
7352,348
7353,349
7354,350
7355,353
7356,353
7357,354
7358,355
7359,357
7360,360
7361,361
7362,361
7363,361
7364,360
7365,360
7366,359
7367,358
7368,357
7369,354
7370,350
7371,348
7372,350
7373,351
7374,349
7375,347
7376,347
7377,349
7378,350
7379,351
7380,352
7381,350
7382,351
7383,352
7384,350
7385,350
7386,351
7387,350
7388,348
7389,348
7390,349
7391,349
7392,349
7393,348
7394,350
7395,352
7396,352
7397,351
7398,351
7399,352
7400,351
7401,350
7402,351
7403,353
7404,353
7405,353
7406,353
7407,354
7408,354
7409,354
7410,355
7411,354
7412,355
7413,355
7414,354
7415,353
7416,353
7417,352
7418,352
7419,353
7420,354
7421,353
7422,354
7423,355
7424,353
7425,353
7426,353
7427,355
7428,359
7429,363
7430,362
7431,361
7432,361
7433,370
7434,380
7435,380
7436,373
7437,370
7438,370
7439,366
7440,357
7441,351
7442,350
7443,352
7444,353
7445,351
7446,350
7447,352
7448,353
7449,352
7450,350
7451,350
7452,351
7453,352
7454,354
7455,353
7456,353
7457,350
7458,345
7459,344
7460,351
7461,380
7462,440
7463,519
7464,581
7465,573
7466,496
7467,406
7468,355
7469,350
7470,355
7471,353
7472,343
7473,335
7474,335
7475,337
7476,338
7477,338
7478,339
7479,340
7480,340
7481,341
7482,339
7483,340
7484,342
7485,342
7486,343
7487,343
7488,341
7489,341
7490,342
7491,341
7492,343
7493,346
7494,347
7495,346
7496,343
7497,345
7498,347
7499,348
7500,349
7501,351
7502,353
7503,353
7504,353
7505,354
7506,355
7507,356
7508,358
7509,359
7510,359
7511,359
7512,358
7513,357
7514,357
7515,357
7516,355
7517,352
7518,349
7519,348
7520,348
7521,348
7522,348
7523,344
7524,344
7525,346
7526,346
7527,346
7528,346
7529,347
7530,348
7531,348
7532,346
7533,344
7534,344
7535,344
7536,343
7537,344
7538,347
7539,348
7540,348
7541,347
7542,349
7543,350
7544,350
7545,350
7546,350
7547,349
7548,349
7549,349
7550,347
7551,346
7552,347
7553,350
7554,349
7555,348
7556,348
7557,348
7558,349
7559,348
7560,347
7561,347
7562,346
7563,348
7564,349
7565,349
7566,348
7567,349
7568,353
7569,356
7570,356
7571,355
7572,359
7573,369
7574,376
7575,369
7576,365
7577,361
7578,359
7579,354
7580,346
7581,345
7582,344
7583,347
7584,345
7585,344
7586,345
7587,345
7588,345
7589,345
7590,346
7591,345
7592,344
7593,344
7594,346
7595,348
7596,347
7597,345
7598,342
7599,344
7600,356
7601,398
7602,467
7603,546
7604,593
7605,556
7606,466
7607,379
7608,347
7609,352
7610,353
7611,344
7612,334
7613,332
7614,331
7615,333
7616,332
7617,336
7618,336
7619,334
7620,336
7621,336
7622,337
7623,336
7624,337
7625,338
7626,337
7627,338
7628,338
7629,339
7630,336
7631,339
7632,340
7633,341
7634,341
7635,341
7636,344
7637,344
7638,347
7639,347
7640,350
7641,352
7642,352
7643,354
7644,353
7645,354
7646,356
7647,360
7648,362
7649,361
7650,362
7651,361
7652,362
7653,359
7654,358
7655,354
7656,351
7657,347
7658,346
7659,349
7660,347
7661,348
7662,347
7663,350
7664,350
7665,348
7666,347
7667,345
7668,346
7669,345
7670,346
7671,341
7672,342
7673,345
7674,344
7675,346
7676,343
7677,345
7678,345
7679,346
7680,346
7681,344
7682,348
7683,348
7684,350
7685,348
7686,346
7687,347
7688,351
7689,352
7690,350
7691,349
7692,347
7693,348
7694,351
7695,351
7696,350
7697,354
7698,354
7699,356
7700,368
7701,347
7702,348
7703,349
7704,350
7705,353
7706,353
7707,354
7708,355
7709,357
7710,360
7711,361
7712,361
7713,361
7714,360
7715,360
7716,359
7717,358
7718,357
7719,354
7720,350
7721,348
7722,350
7723,351
7724,349
7725,347
7726,347
7727,349
7728,350
7729,351
7730,352
7731,350
7732,351
7733,352
7734,350
7735,350
7736,351
7737,350
7738,348
7739,348
7740,349
7741,349
7742,349
7743,348
7744,350
7745,352
7746,352
7747,351
7748,351
7749,352
7750,351
7751,350
7752,351
7753,353
7754,353
7755,353
7756,353
7757,354
7758,354
7759,354
7760,355
7761,354
7762,355
7763,355
7764,354
7765,353
7766,353
7767,352
7768,352
7769,353
7770,354
7771,353
7772,354
7773,355
7774,353
7775,353
7776,353
7777,355
7778,359
7779,363
7780,362
7781,361
7782,361
7783,370
7784,380
7785,380
7786,373
7787,370
7788,370
7789,366
7790,357
7791,351
7792,350
7793,352
7794,353
7795,351
7796,350
7797,352
7798,353
7799,352
7800,350
7801,350
7802,351
7803,352
7804,354
7805,353
7806,353
7807,350
7808,345
7809,344
7810,351
7811,380
7812,440
7813,519
7814,581
7815,573
7816,496
7817,406
7818,355
7819,350
7820,355
7821,353
7822,343
7823,335
7824,335
7825,337
7826,338
7827,338
7828,339
7829,340
7830,340
7831,341
7832,339
7833,340
7834,342
7835,342
7836,343
7837,343
7838,341
7839,341
7840,342
7841,341
7842,343
7843,346
7844,347
7845,346
7846,343
7847,345
7848,347
7849,348
7850,349
7851,351
7852,353
7853,353
7854,353
7855,354
7856,355
7857,356
7858,358
7859,359
7860,359
7861,359
7862,358
7863,357
7864,357
7865,357
7866,355
7867,352
7868,349
7869,348
7870,348
7871,348
7872,348
7873,344
7874,344
7875,346
7876,346
7877,346
7878,346
7879,347
7880,348
7881,348
7882,346
7883,344
7884,344
7885,344
7886,343
7887,344
7888,347
7889,348
7890,348
7891,347
7892,349
7893,350
7894,350
7895,350
7896,350
7897,349
7898,349
7899,349
7900,347
7901,346
7902,347
7903,350
7904,349
7905,348
7906,348
7907,348
7908,349
7909,348
7910,347
7911,347
7912,346
7913,348
7914,349
7915,349
7916,348
7917,349
7918,353
7919,356
7920,356
7921,355
7922,359
7923,369
7924,376
7925,369
7926,365
7927,361
7928,359
7929,354
7930,346
7931,345
7932,344
7933,347
7934,345
7935,344
7936,345
7937,345
7938,345
7939,345
7940,346
7941,345
7942,344
7943,344
7944,346
7945,348
7946,347
7947,345
7948,342
7949,344
7950,356
7951,398
7952,467
7953,546
7954,593
7955,556
7956,466
7957,379
7958,347
7959,352
7960,353
7961,344
7962,334
7963,332
7964,331
7965,333
7966,332
7967,336
7968,336
7969,334
7970,336
7971,336
7972,337
7973,336
7974,337
7975,338
7976,337
7977,338
7978,338
7979,339
7980,336
7981,339
7982,340
7983,341
7984,341
7985,341
7986,344
7987,344
7988,347
7989,347
7990,350
7991,352
7992,352
7993,354
7994,353
7995,354
7996,356
7997,360
7998,362
7999,361
8000,362
8001,361
8002,362
8003,359
8004,358
8005,354
8006,351
8007,347
8008,346
8009,349
8010,347
8011,348
8012,347
8013,350
8014,350
8015,348
8016,347
8017,345
8018,346
8019,345
8020,346
8021,341
8022,342
8023,345
8024,344
8025,346
8026,343
8027,345
8028,345
8029,346
8030,346
8031,344
8032,348
8033,348
8034,350
8035,348
8036,346
8037,347
8038,351
8039,352
8040,350
8041,349
8042,347
8043,348
8044,351
8045,351
8046,350
8047,354
8048,354
8049,356
8050,368
8051,347
8052,348
8053,349
8054,350
8055,353
8056,353
8057,354
8058,355
8059,357
8060,360
8061,361
8062,361
8063,361
8064,360
8065,360
8066,359
8067,358
8068,357
8069,354
8070,350
8071,348
8072,350
8073,351
8074,349
8075,347
8076,347
8077,349
8078,350
8079,351
8080,352
8081,350
8082,351
8083,352
8084,350
8085,350
8086,351
8087,350
8088,348
8089,348
8090,349
8091,349
8092,349
8093,348
8094,350
8095,352
8096,352
8097,351
8098,351
8099,352
8100,351
8101,350
8102,351
8103,353
8104,353
8105,353
8106,353
8107,354
8108,354
8109,354
8110,355
8111,354
8112,355
8113,355
8114,354
8115,353
8116,353
8117,352
8118,352
8119,353
8120,354
8121,353
8122,354
8123,355
8124,353
8125,353
8126,353
8127,355
8128,359
8129,363
8130,362
8131,361
8132,361
8133,370
8134,380
8135,380
8136,373
8137,370
8138,370
8139,366
8140,357
8141,351
8142,350
8143,352
8144,353
8145,351
8146,350
8147,352
8148,353
8149,352
8150,350
8151,350
8152,351
8153,352
8154,354
8155,353
8156,353
8157,350
8158,345
8159,344
8160,351
8161,380
8162,440
8163,519
8164,581
8165,573
8166,496
8167,406
8168,355
8169,350
8170,355
8171,353
8172,343
8173,335
8174,335
8175,337
8176,338
8177,338
8178,339
8179,340
8180,340
8181,341
8182,339
8183,340
8184,342
8185,342
8186,343
8187,343
8188,341
8189,341
8190,342
8191,341
8192,343
8193,346
8194,347
8195,346
8196,343
8197,345
8198,347
8199,348
8200,349
8201,351
8202,353
8203,353
8204,353
8205,354
8206,355
8207,356
8208,358
8209,359
8210,359
8211,359
8212,358
8213,357
8214,357
8215,357
8216,355
8217,352
8218,349
8219,348
8220,348
8221,348
8222,348
8223,344
8224,344
8225,346
8226,346
8227,346
8228,346
8229,347
8230,348
8231,348
8232,346
8233,344
8234,344
8235,344
8236,343
8237,344
8238,347
8239,348
8240,348
8241,347
8242,349
8243,350
8244,350
8245,350
8246,350
8247,349
8248,349
8249,349
8250,347
8251,346
8252,347
8253,350
8254,349
8255,348
8256,348
8257,348
8258,349
8259,348
8260,347
8261,347
8262,346
8263,348
8264,349
8265,349
8266,348
8267,349
8268,353
8269,356
8270,356
8271,355
8272,359
8273,369
8274,376
8275,369
8276,365
8277,361
8278,359
8279,354
8280,346
8281,345
8282,344
8283,347
8284,345
8285,344
8286,345
8287,345
8288,345
8289,345
8290,346
8291,345
8292,344
8293,344
8294,346
8295,348
8296,347
8297,345
8298,342
8299,344
8300,356
8301,398
8302,467
8303,546
8304,593
8305,556
8306,466
8307,379
8308,347
8309,352
8310,353
8311,344
8312,334
8313,332
8314,331
8315,333
8316,332
8317,336
8318,336
8319,334
8320,336
8321,336
8322,337
8323,336
8324,337
8325,338
8326,337
8327,338
8328,338
8329,339
8330,336
8331,339
8332,340
8333,341
8334,341
8335,341
8336,344
8337,344
8338,347
8339,347
8340,350
8341,352
8342,352
8343,354
8344,353
8345,354
8346,356
8347,360
8348,362
8349,361
8350,362
8351,361
8352,362
8353,359
8354,358
8355,354
8356,351
8357,347
8358,346
8359,349
8360,347
8361,348
8362,347
8363,350
8364,350
8365,348
8366,347
8367,345
8368,346
8369,345
8370,346
8371,341
8372,342
8373,345
8374,344
8375,346
8376,343
8377,345
8378,345
8379,346
8380,346
8381,344
8382,348
8383,348
8384,350
8385,348
8386,346
8387,347
8388,351
8389,352
8390,350
8391,349
8392,347
8393,348
8394,351
8395,351
8396,350
8397,354
8398,354
8399,356
8400,368
8401,347
8402,348
8403,349
8404,350
8405,353
8406,353
8407,354
8408,355
8409,357
8410,360
8411,361
8412,361
8413,361
8414,360
8415,360
8416,359
8417,358
8418,357
8419,354
8420,350
8421,348
8422,350
8423,351
8424,349
8425,347
8426,347
8427,349
8428,350
8429,351
8430,352
8431,350
8432,351
8433,352
8434,350
8435,350
8436,351
8437,350
8438,348
8439,348
8440,349
8441,349
8442,349
8443,348
8444,350
8445,352
8446,352
8447,351
8448,351
8449,352
8450,351
8451,350
8452,351
8453,353
8454,353
8455,353
8456,353
8457,354
8458,354
8459,354
8460,355
8461,354
8462,355
8463,355
8464,354
8465,353
8466,353
8467,352
8468,352
8469,353
8470,354
8471,353
8472,354
8473,355
8474,353
8475,353
8476,353
8477,355
8478,359
8479,363
8480,362
8481,361
8482,361
8483,370
8484,380
8485,380
8486,373
8487,370
8488,370
8489,366
8490,357
8491,351
8492,350
8493,352
8494,353
8495,351
8496,350
8497,352
8498,353
8499,352
8500,350
8501,350
8502,351
8503,352
8504,354
8505,353
8506,353
8507,350
8508,345
8509,344
8510,351
8511,380
8512,440
8513,519
8514,581
8515,573
8516,496
8517,406
8518,355
8519,350
8520,355
8521,353
8522,343
8523,335
8524,335
8525,337
8526,338
8527,338
8528,339
8529,340
8530,340
8531,341
8532,339
8533,340
8534,342
8535,342
8536,343
8537,343
8538,341
8539,341
8540,342
8541,341
8542,343
8543,346
8544,347
8545,346
8546,343
8547,345
8548,347
8549,348
8550,349
8551,351
8552,353
8553,353
8554,353
8555,354
8556,355
8557,356
8558,358
8559,359
8560,359
8561,359
8562,358
8563,357
8564,357
8565,357
8566,355
8567,352
8568,349
8569,348
8570,348
8571,348
8572,348
8573,344
8574,344
8575,346
8576,346
8577,346
8578,346
8579,347
8580,348
8581,348
8582,346
8583,344
8584,344
8585,344
8586,343
8587,344
8588,347
8589,348
8590,348
8591,347
8592,349
8593,350
8594,350
8595,350
8596,350
8597,349
8598,349
8599,349
8600,347
8601,346
8602,347
8603,350
8604,349
8605,348
8606,348
8607,348
8608,349
8609,348
8610,347
8611,347
8612,346
8613,348
8614,349
8615,349
8616,348
8617,349
8618,353
8619,356
8620,356
8621,355
8622,359
8623,369
8624,376
8625,369
8626,365
8627,361
8628,359
8629,354
8630,346
8631,345
8632,344
8633,347
8634,345
8635,344
8636,345
8637,345
8638,345
8639,345
8640,346
8641,345
8642,344
8643,344
8644,346
8645,348
8646,347
8647,345
8648,342
8649,344
8650,356
8651,398
8652,467
8653,546
8654,593
8655,556
8656,466
8657,379
8658,347
8659,352
8660,353
8661,344
8662,334
8663,332
8664,331
8665,333
8666,332
8667,336
8668,336
8669,334
8670,336
8671,336
8672,337
8673,336
8674,337
8675,338
8676,337
8677,338
8678,338
8679,339
8680,336
8681,339
8682,340
8683,341
8684,341
8685,341
8686,344
8687,344
8688,347
8689,347
8690,350
8691,352
8692,352
8693,354
8694,353
8695,354
8696,356
8697,360
8698,362
8699,361
8700,362
8701,361
8702,362
8703,359
8704,358
8705,354
8706,351
8707,347
8708,346
8709,349
8710,347
8711,348
8712,347
8713,350
8714,350
8715,348
8716,347
8717,345
8718,346
8719,345
8720,346
8721,341
8722,342
8723,345
8724,344
8725,346
8726,343
8727,345
8728,345
8729,346
8730,346
8731,344
8732,348
8733,348
8734,350
8735,348
8736,346
8737,347
8738,351
8739,352
8740,350
8741,349
8742,347
8743,348
8744,351
8745,351
8746,350
8747,354
8748,354
8749,356
8750,368
8751,347
8752,348
8753,349
8754,350
8755,353
8756,353
8757,354
8758,355
8759,357
8760,360
8761,361
8762,361
8763,361
8764,360
8765,360
8766,359
8767,358
8768,357
8769,354
8770,350
8771,348
8772,350
8773,351
8774,349
8775,347
8776,347
8777,349
8778,350
8779,351
8780,352
8781,350
8782,351
8783,352
8784,350
8785,350
8786,351
8787,350
8788,348
8789,348
8790,349
8791,349
8792,349
8793,348
8794,350
8795,352
8796,352
8797,351
8798,351
8799,352
8800,351
8801,350
8802,351
8803,353
8804,353
8805,353
8806,353
8807,354
8808,354
8809,354
8810,355
8811,354
8812,355
8813,355
8814,354
8815,353
8816,353
8817,352
8818,352
8819,353
8820,354
8821,353
8822,354
8823,355
8824,353
8825,353
8826,353
8827,355
8828,359
8829,363
8830,362
8831,361
8832,361
8833,370
8834,380
8835,380
8836,373
8837,370
8838,370
8839,366
8840,357
8841,351
8842,350
8843,352
8844,353
8845,351
8846,350
8847,352
8848,353
8849,352
8850,350
8851,350
8852,351
8853,352
8854,354
8855,353
8856,353
8857,350
8858,345
8859,344
8860,351
8861,380
8862,440
8863,519
8864,581
8865,573
8866,496
8867,406
8868,355
8869,350
8870,355
8871,353
8872,343
8873,335
8874,335
8875,337
8876,338
8877,338
8878,339
8879,340
8880,340
8881,341
8882,339
8883,340
8884,342
8885,342
8886,343
8887,343
8888,341
8889,341
8890,342
8891,341
8892,343
8893,346
8894,347
8895,346
8896,343
8897,345
8898,347
8899,348
8900,349
8901,351
8902,353
8903,353
8904,353
8905,354
8906,355
8907,356
8908,358
8909,359
8910,359
8911,359
8912,358
8913,357
8914,357
8915,357
8916,355
8917,352
8918,349
8919,348
8920,348
8921,348
8922,348
8923,344
8924,344
8925,346
8926,346
8927,346
8928,346
8929,347
8930,348
8931,348
8932,346
8933,344
8934,344
8935,344
8936,343
8937,344
8938,347
8939,348
8940,348
8941,347
8942,349
8943,350
8944,350
8945,350
8946,350
8947,349
8948,349
8949,349
8950,347
8951,346
8952,347
8953,350
8954,349
8955,348
8956,348
8957,348
8958,349
8959,348
8960,347
8961,347
8962,346
8963,348
8964,349
8965,349
8966,348
8967,349
8968,353
8969,356
8970,356
8971,355
8972,359
8973,369
8974,376
8975,369
8976,365
8977,361
8978,359
8979,354
8980,346
8981,345
8982,344
8983,347
8984,345
8985,344
8986,345
8987,345
8988,345
8989,345
8990,346
8991,345
8992,344
8993,344
8994,346
8995,348
8996,347
8997,345
8998,342
8999,344
9000,356
9001,398
9002,467
9003,546
9004,593
9005,556
9006,466
9007,379
9008,347
9009,352
9010,353
9011,344
9012,334
9013,332
9014,331
9015,333
9016,332
9017,336
9018,336
9019,334
9020,336
9021,336
9022,337
9023,336
9024,337
9025,338
9026,337
9027,338
9028,338
9029,339
9030,336
9031,339
9032,340
9033,341
9034,341
9035,341
9036,344
9037,344
9038,347
9039,347
9040,350
9041,352
9042,352
9043,354
9044,353
9045,354
9046,356
9047,360
9048,362
9049,361
9050,362
9051,361
9052,362
9053,359
9054,358
9055,354
9056,351
9057,347
9058,346
9059,349
9060,347
9061,348
9062,347
9063,350
9064,350
9065,348
9066,347
9067,345
9068,346
9069,345
9070,346
9071,341
9072,342
9073,345
9074,344
9075,346
9076,343
9077,345
9078,345
9079,346
9080,346
9081,344
9082,348
9083,348
9084,350
9085,348
9086,346
9087,347
9088,351
9089,352
9090,350
9091,349
9092,347
9093,348
9094,351
9095,351
9096,350
9097,354
9098,354
9099,356
9100,368
9101,347
9102,348
9103,349
9104,350
9105,353
9106,353
9107,354
9108,355
9109,357
9110,360
9111,361
9112,361
9113,361
9114,360
9115,360
9116,359
9117,358
9118,357
9119,354
9120,350
9121,348
9122,350
9123,351
9124,349
9125,347
9126,347
9127,349
9128,350
9129,351
9130,352
9131,350
9132,351
9133,352
9134,350
9135,350
9136,351
9137,350
9138,348
9139,348
9140,349
9141,349
9142,349
9143,348
9144,350
9145,352
9146,352
9147,351
9148,351
9149,352
9150,351
9151,350
9152,351
9153,353
9154,353
9155,353
9156,353
9157,354
9158,354
9159,354
9160,355
9161,354
9162,355
9163,355
9164,354
9165,353
9166,353
9167,352
9168,352
9169,353
9170,354
9171,353
9172,354
9173,355
9174,353
9175,353
9176,353
9177,355
9178,359
9179,363
9180,362
9181,361
9182,361
9183,370
9184,380
9185,380
9186,373
9187,370
9188,370
9189,366
9190,357
9191,351
9192,350
9193,352
9194,353
9195,351
9196,350
9197,352
9198,353
9199,352
9200,350
9201,350
9202,351
9203,352
9204,354
9205,353
9206,353
9207,350
9208,345
9209,344
9210,351
9211,380
9212,440
9213,519
9214,581
9215,573
9216,496
9217,406
9218,355
9219,350
9220,355
9221,353
9222,343
9223,335
9224,335
9225,337
9226,338
9227,338
9228,339
9229,340
9230,340
9231,341
9232,339
9233,340
9234,342
9235,342
9236,343
9237,343
9238,341
9239,341
9240,342
9241,341
9242,343
9243,346
9244,347
9245,346
9246,343
9247,345
9248,347
9249,348
9250,349
9251,351
9252,353
9253,353
9254,353
9255,354
9256,355
9257,356
9258,358
9259,359
9260,359
9261,359
9262,358
9263,357
9264,357
9265,357
9266,355
9267,352
9268,349
9269,348
9270,348
9271,348
9272,348
9273,344
9274,344
9275,346
9276,346
9277,346
9278,346
9279,347
9280,348
9281,348
9282,346
9283,344
9284,344
9285,344
9286,343
9287,344
9288,347
9289,348
9290,348
9291,347
9292,349
9293,350
9294,350
9295,350
9296,350
9297,349
9298,349
9299,349
9300,347
9301,346
9302,347
9303,350
9304,349
9305,348
9306,348
9307,348
9308,349
9309,348
9310,347
9311,347
9312,346
9313,348
9314,349
9315,349
9316,348
9317,349
9318,353
9319,356
9320,356
9321,355
9322,359
9323,369
9324,376
9325,369
9326,365
9327,361
9328,359
9329,354
9330,346
9331,345
9332,344
9333,347
9334,345
9335,344
9336,345
9337,345
9338,345
9339,345
9340,346
9341,345
9342,344
9343,344
9344,346
9345,348
9346,347
9347,345
9348,342
9349,344
9350,356
9351,398
9352,467
9353,546
9354,593
9355,556
9356,466
9357,379
9358,347
9359,352
9360,353
9361,344
9362,334
9363,332
9364,331
9365,333
9366,332
9367,336
9368,336
9369,334
9370,336
9371,336
9372,337
9373,336
9374,337
9375,338
9376,337
9377,338
9378,338
9379,339
9380,336
9381,339
9382,340
9383,341
9384,341
9385,341
9386,344
9387,344
9388,347
9389,347
9390,350
9391,352
9392,352
9393,354
9394,353
9395,354
9396,356
9397,360
9398,362
9399,361
9400,362
9401,361
9402,362
9403,359
9404,358
9405,354
9406,351
9407,347
9408,346
9409,349
9410,347
9411,348
9412,347
9413,350
9414,350
9415,348
9416,347
9417,345
9418,346
9419,345
9420,346
9421,341
9422,342
9423,345
9424,344
9425,346
9426,343
9427,345
9428,345
9429,346
9430,346
9431,344
9432,348
9433,348
9434,350
9435,348
9436,346
9437,347
9438,351
9439,352
9440,350
9441,349
9442,347
9443,348
9444,351
9445,351
9446,350
9447,354
9448,354
9449,356
9450,368
9451,347
9452,348
9453,349
9454,350
9455,353
9456,353
9457,354
9458,355
9459,357
9460,360
9461,361
9462,361
9463,361
9464,360
9465,360
9466,359
9467,358
9468,357
9469,354
9470,350
9471,348
9472,350
9473,351
9474,349
9475,347
9476,347
9477,349
9478,350
9479,351
9480,352
9481,350
9482,351
9483,352
9484,350
9485,350
9486,351
9487,350
9488,348
9489,348
9490,349
9491,349
9492,349
9493,348
9494,350
9495,352
9496,352
9497,351
9498,351
9499,352
9500,351
9501,350
9502,351
9503,353
9504,353
9505,353
9506,353
9507,354
9508,354
9509,354
9510,355
9511,354
9512,355
9513,355
9514,354
9515,353
9516,353
9517,352
9518,352
9519,353
9520,354
9521,353
9522,354
9523,355
9524,353
9525,353
9526,353
9527,355
9528,359
9529,363
9530,362
9531,361
9532,361
9533,370
9534,380
9535,380
9536,373
9537,370
9538,370
9539,366
9540,357
9541,351
9542,350
9543,352
9544,353
9545,351
9546,350
9547,352
9548,353
9549,352
9550,350
9551,350
9552,351
9553,352
9554,354
9555,353
9556,353
9557,350
9558,345
9559,344
9560,351
9561,380
9562,440
9563,519
9564,581
9565,573
9566,496
9567,406
9568,355
9569,350
9570,355
9571,353
9572,343
9573,335
9574,335
9575,337
9576,338
9577,338
9578,339
9579,340
9580,340
9581,341
9582,339
9583,340
9584,342
9585,342
9586,343
9587,343
9588,341
9589,341
9590,342
9591,341
9592,343
9593,346
9594,347
9595,346
9596,343
9597,345
9598,347
9599,348
9600,349
9601,351
9602,353
9603,353
9604,353
9605,354
9606,355
9607,356
9608,358
9609,359
9610,359
9611,359
9612,358
9613,357
9614,357
9615,357
9616,355
9617,352
9618,349
9619,348
9620,348
9621,348
9622,348
9623,344
9624,344
9625,346
9626,346
9627,346
9628,346
9629,347
9630,348
9631,348
9632,346
9633,344
9634,344
9635,344
9636,343
9637,344
9638,347
9639,348
9640,348
9641,347
9642,349
9643,350
9644,350
9645,350
9646,350
9647,349
9648,349
9649,349
9650,347
9651,346
9652,347
9653,350
9654,349
9655,348
9656,348
9657,348
9658,349
9659,348
9660,347
9661,347
9662,346
9663,348
9664,349
9665,349
9666,348
9667,349
9668,353
9669,356
9670,356
9671,355
9672,359
9673,369
9674,376
9675,369
9676,365
9677,361
9678,359
9679,354
9680,346
9681,345
9682,344
9683,347
9684,345
9685,344
9686,345
9687,345
9688,345
9689,345
9690,346
9691,345
9692,344
9693,344
9694,346
9695,348
9696,347
9697,345
9698,342
9699,344
9700,356
9701,398
9702,467
9703,546
9704,593
9705,556
9706,466
9707,379
9708,347
9709,352
9710,353
9711,344
9712,334
9713,332
9714,331
9715,333
9716,332
9717,336
9718,336
9719,334
9720,336
9721,336
9722,337
9723,336
9724,337
9725,338
9726,337
9727,338
9728,338
9729,339
9730,336
9731,339
9732,340
9733,341
9734,341
9735,341
9736,344
9737,344
9738,347
9739,347
9740,350
9741,352
9742,352
9743,354
9744,353
9745,354
9746,356
9747,360
9748,362
9749,361
9750,362
9751,361
9752,362
9753,359
9754,358
9755,354
9756,351
9757,347
9758,346
9759,349
9760,347
9761,348
9762,347
9763,350
9764,350
9765,348
9766,347
9767,345
9768,346
9769,345
9770,346
9771,341
9772,342
9773,345
9774,344
9775,346
9776,343
9777,345
9778,345
9779,346
9780,346
9781,344
9782,348
9783,348
9784,350
9785,348
9786,346
9787,347
9788,351
9789,352
9790,350
9791,349
9792,347
9793,348
9794,351
9795,351
9796,350
9797,354
9798,354
9799,356
9800,368
9801,347
9802,348
9803,349
9804,350
9805,353
9806,353
9807,354
9808,355
9809,357
9810,360
9811,361
9812,361
9813,361
9814,360
9815,360
9816,359
9817,358
9818,357
9819,354
9820,350
9821,348
9822,350
9823,351
9824,349
9825,347
9826,347
9827,349
9828,350
9829,351
9830,352
9831,350
9832,351
9833,352
9834,350
9835,350
9836,351
9837,350
9838,348
9839,348
9840,349
9841,349
9842,349
9843,348
9844,350
9845,352
9846,352
9847,351
9848,351
9849,352
9850,351
9851,350
9852,351
9853,353
9854,353
9855,353
9856,353
9857,354
9858,354
9859,354
9860,355
9861,354
9862,355
9863,355
9864,354
9865,353
9866,353
9867,352
9868,352
9869,353
9870,354
9871,353
9872,354
9873,355
9874,353
9875,353
9876,353
9877,355
9878,359
9879,363
9880,362
9881,361
9882,361
9883,370
9884,380
9885,380
9886,373
9887,370
9888,370
9889,366
9890,357
9891,351
9892,350
9893,352
9894,353
9895,351
9896,350
9897,352
9898,353
9899,352
9900,350
9901,350
9902,351
9903,352
9904,354
9905,353
9906,353
9907,350
9908,345
9909,344
9910,351
9911,380
9912,440
9913,519
9914,581
9915,573
9916,496
9917,406
9918,355
9919,350
9920,355
9921,353
9922,343
9923,335
9924,335
9925,337
9926,338
9927,338
9928,339
9929,340
9930,340
9931,341
9932,339
9933,340
9934,342
9935,342
9936,343
9937,343
9938,341
9939,341
9940,342
9941,341
9942,343
9943,346
9944,347
9945,346
9946,343
9947,345
9948,347
9949,348
9950,349
9951,351
9952,353
9953,353
9954,353
9955,354
9956,355
9957,356
9958,358
9959,359
9960,359
9961,359
9962,358
9963,357
9964,357
9965,357
9966,355
9967,352
9968,349
9969,348
9970,348
9971,348
9972,348
9973,344
9974,344
9975,346
9976,346
9977,346
9978,346
9979,347
9980,348
9981,348
9982,346
9983,344
9984,344
9985,344
9986,343
9987,344
9988,347
9989,348
9990,348
9991,347
9992,349
9993,350
9994,350
9995,350
9996,350
9997,349
9998,349
9999,349
10000,347
10001,346
10002,347
10003,350
10004,349
10005,348
10006,348
10007,348
10008,349
10009,348
10010,347
10011,347
10012,346
10013,348
10014,349
10015,349
10016,348
10017,349
10018,353
10019,356
10020,356
10021,355
10022,359
10023,369
10024,376
10025,369
10026,365
10027,361
10028,359
10029,354
10030,346
10031,345
10032,344
10033,347
10034,345
10035,344
10036,345
10037,345
10038,345
10039,345
10040,346
10041,345
10042,344
10043,344
10044,346
10045,348
10046,347
10047,345
10048,342
10049,344
10050,356
10051,398
10052,467
10053,546
10054,593
10055,556
10056,466
10057,379
10058,347
10059,352
10060,353
10061,344
10062,334
10063,332
10064,331
10065,333
10066,332
10067,336
10068,336
10069,334
10070,336
10071,336
10072,337
10073,336
10074,337
10075,338
10076,337
10077,338
10078,338
10079,339
10080,336
10081,339
10082,340
10083,341
10084,341
10085,341
10086,344
10087,344
10088,347
10089,347
10090,350
10091,352
10092,352
10093,354
10094,353
10095,354
10096,356
10097,360
10098,362
10099,361
10100,362
10101,361
10102,362
10103,359
10104,358
10105,354
10106,351
10107,347
10108,346
10109,349
10110,347
10111,348
10112,347
10113,350
10114,350
10115,348
10116,347
10117,345
10118,346
10119,345
10120,346
10121,341
10122,342
10123,345
10124,344
10125,346
10126,343
10127,345
10128,345
10129,346
10130,346
10131,344
10132,348
10133,348
10134,350
10135,348
10136,346
10137,347
10138,351
10139,352
10140,350
10141,349
10142,347
10143,348
10144,351
10145,351
10146,350
10147,354
10148,354
10149,356
10150,368
10151,347
10152,348
10153,349
10154,350
10155,353
10156,353
10157,354
10158,355
10159,357
10160,360
10161,361
10162,361
10163,361
10164,360
10165,360
10166,359
10167,358
10168,357
10169,354
10170,350
10171,348
10172,350
10173,351
10174,349
10175,347
10176,347
10177,349
10178,350
10179,351
10180,352
10181,350
10182,351
10183,352
10184,350
10185,350
10186,351
10187,350
10188,348
10189,348
10190,349
10191,349
10192,349
10193,348
10194,350
10195,352
10196,352
10197,351
10198,351
10199,352
10200,351
10201,350
10202,351
10203,353
10204,353
10205,353
10206,353
10207,354
10208,354
10209,354
10210,355
10211,354
10212,355
10213,355
10214,354
10215,353
10216,353
10217,352
10218,352
10219,353
10220,354
10221,353
10222,354
10223,355
10224,353
10225,353
10226,353
10227,355
10228,359
10229,363
10230,362
10231,361
10232,361
10233,370
10234,380
10235,380
10236,373
10237,370
10238,370
10239,366
10240,357
10241,351
10242,350
10243,352
10244,353
10245,351
10246,350
10247,352
10248,353
10249,352
10250,350
10251,350
10252,351
10253,352
10254,354
10255,353
10256,353
10257,350
10258,345
10259,344
10260,351
10261,380
10262,440
10263,519
10264,581
10265,573
10266,496
10267,406
10268,355
10269,350
10270,355
10271,353
10272,343
10273,335
10274,335
10275,337
10276,338
10277,338
10278,339
10279,340
10280,340
10281,341
10282,339
10283,340
10284,342
10285,342
10286,343
10287,343
10288,341
10289,341
10290,342
10291,341
10292,343
10293,346
10294,347
10295,346
10296,343
10297,345
10298,347
10299,348
10300,349
10301,351
10302,353
10303,353
10304,353
10305,354
10306,355
10307,356
10308,358
10309,359
10310,359
10311,359
10312,358
10313,357
10314,357
10315,357
10316,355
10317,352
10318,349
10319,348
10320,348
10321,348
10322,348
10323,344
10324,344
10325,346
10326,346
10327,346
10328,346
10329,347
10330,348
10331,348
10332,346
10333,344
10334,344
10335,344
10336,343
10337,344
10338,347
10339,348
10340,348
10341,347
10342,349
10343,350
10344,350
10345,350
10346,350
10347,349
10348,349
10349,349
10350,347
10351,346
10352,347
10353,350
10354,349
10355,348
10356,348
10357,348
10358,349
10359,348
10360,347
10361,347
10362,346
10363,348
10364,349
10365,349
10366,348
10367,349
10368,353
10369,356
10370,356
10371,355
10372,359
10373,369
10374,376
10375,369
10376,365
10377,361
10378,359
10379,354
10380,346
10381,345
10382,344
10383,347
10384,345
10385,344
10386,345
10387,345
10388,345
10389,345
10390,346
10391,345
10392,344
10393,344
10394,346
10395,348
10396,347
10397,345
10398,342
10399,344
10400,356
10401,398
10402,467
10403,546
10404,593
10405,556
10406,466
10407,379
10408,347
10409,352
10410,353
10411,344
10412,334
10413,332
10414,331
10415,333
10416,332
10417,336
10418,336
10419,334
10420,336
10421,336
10422,337
10423,336
10424,337
10425,338
10426,337
10427,338
10428,338
10429,339
10430,336
10431,339
10432,340
10433,341
10434,341
10435,341
10436,344
10437,344
10438,347
10439,347
10440,350
10441,352
10442,352
10443,354
10444,353
10445,354
10446,356
10447,360
10448,362
10449,361
10450,362
10451,361
10452,362
10453,359
10454,358
10455,354
10456,351
10457,347
10458,346
10459,349
10460,347
10461,348
10462,347
10463,350
10464,350
10465,348
10466,347
10467,345
10468,346
10469,345
10470,346
10471,341
10472,342
10473,345
10474,344
10475,346
10476,343
10477,345
10478,345
10479,346
10480,346
10481,344
10482,348
10483,348
10484,350
10485,348
10486,346
10487,347
10488,351
10489,352
10490,350
10491,349
10492,347
10493,348
10494,351
10495,351
10496,350
10497,354
10498,354
10499,356
10500,368
10501,347
10502,348
10503,349
10504,350
10505,353
10506,353
10507,354
10508,355
10509,357
10510,360
10511,361
10512,361
10513,361
10514,360
10515,360
10516,359
10517,358
10518,357
10519,354
10520,350
10521,348
10522,350
10523,351
10524,349
10525,347
10526,347
10527,349
10528,350
10529,351
10530,352
10531,350
10532,351
10533,352
10534,350
10535,350
10536,351
10537,350
10538,348
10539,348
10540,349
10541,349
10542,349
10543,348
10544,350
10545,352
10546,352
10547,351
10548,351
10549,352
10550,351
10551,350
10552,351
10553,353
10554,353
10555,353
10556,353
10557,354
10558,354
10559,354
10560,355
10561,354
10562,355
10563,355
10564,354
10565,353
10566,353
10567,352
10568,352
10569,353
10570,354
10571,353
10572,354
10573,355
10574,353
10575,353
10576,353
10577,355
10578,359
10579,363
10580,362
10581,361
10582,361
10583,370
10584,380
10585,380
10586,373
10587,370
10588,370
10589,366
10590,357
10591,351
10592,350
10593,352
10594,353
10595,351
10596,350
10597,352
10598,353
10599,352
10600,350
10601,350
10602,351
10603,352
10604,354
10605,353
10606,353
10607,350
10608,345
10609,344
10610,351
10611,380
10612,440
10613,519
10614,581
10615,573
10616,496
10617,406
10618,355
10619,350
10620,355
10621,353
10622,343
10623,335
10624,335
10625,337
10626,338
10627,338
10628,339
10629,340
10630,340
10631,341
10632,339
10633,340
10634,342
10635,342
10636,343
10637,343
10638,341
10639,341
10640,342
10641,341
10642,343
10643,346
10644,347
10645,346
10646,343
10647,345
10648,347
10649,348
10650,349
10651,351
10652,353
10653,353
10654,353
10655,354
10656,355
10657,356
10658,358
10659,359
10660,359
10661,359
10662,358
10663,357
10664,357
10665,357
10666,355
10667,352
10668,349
10669,348
10670,348
10671,348
10672,348
10673,344
10674,344
10675,346
10676,346
10677,346
10678,346
10679,347
10680,348
10681,348
10682,346
10683,344
10684,344
10685,344
10686,343
10687,344
10688,347
10689,348
10690,348
10691,347
10692,349
10693,350
10694,350
10695,350
10696,350
10697,349
10698,349
10699,349
10700,347
10701,346
10702,347
10703,350
10704,349
10705,348
10706,348
10707,348
10708,349
10709,348
10710,347
10711,347
10712,346
10713,348
10714,349
10715,349
10716,348
10717,349
10718,353
10719,356
10720,356
10721,355
10722,359
10723,369
10724,376
10725,369
10726,365
10727,361
10728,359
10729,354
10730,346
10731,345
10732,344
10733,347
10734,345
10735,344
10736,345
10737,345
10738,345
10739,345
10740,346
10741,345
10742,344
10743,344
10744,346
10745,348
10746,347
10747,345
10748,342
10749,344
10750,356
10751,398
10752,467
10753,546
10754,593
10755,556
10756,466
10757,379
10758,347
10759,352
10760,353
10761,344
10762,334
10763,332
10764,331
10765,333
10766,332
10767,336
10768,336
10769,334
10770,336
10771,336
10772,337
10773,336
10774,337
10775,338
10776,337
10777,338
10778,338
10779,339
10780,336
10781,339
10782,340
10783,341
10784,341
10785,341
10786,344
10787,344
10788,347
10789,347
10790,350
10791,352
10792,352
10793,354
10794,353
10795,354
10796,356
10797,360
10798,362
10799,361
10800,362
10801,361
10802,362
10803,359
10804,358
10805,354
10806,351
10807,347
10808,346
10809,349
10810,347
10811,348
10812,347
10813,350
10814,350
10815,348
10816,347
10817,345
10818,346
10819,345
10820,346
10821,341
10822,342
10823,345
10824,344
10825,346
10826,343
10827,345
10828,345
10829,346
10830,346
10831,344
10832,348
10833,348
10834,350
10835,348
10836,346
10837,347
10838,351
10839,352
10840,350
10841,349
10842,347
10843,348
10844,351
10845,351
10846,350
10847,354
10848,354
10849,356
10850,368
10851,347
10852,348
10853,349
10854,350
10855,353
10856,353
10857,354
10858,355
10859,357
10860,360
10861,361
10862,361
10863,361
10864,360
10865,360
10866,359
10867,358
10868,357
10869,354
10870,350
10871,348
10872,350
10873,351
10874,349
10875,347
10876,347
10877,349
10878,350
10879,351
10880,352
10881,350
10882,351
10883,352
10884,350
10885,350
10886,351
10887,350
10888,348
10889,348
10890,349
10891,349
10892,349
10893,348
10894,350
10895,352
10896,352
10897,351
10898,351
10899,352
10900,351
10901,350
10902,351
10903,353
10904,353
10905,353
10906,353
10907,354
10908,354
10909,354
10910,355
10911,354
10912,355
10913,355
10914,354
10915,353
10916,353
10917,352
10918,352
10919,353
10920,354
10921,353
10922,354
10923,355
10924,353
10925,353
10926,353
10927,355
10928,359
10929,363
10930,362
10931,361
10932,361
10933,370
10934,380
10935,380
10936,373
10937,370
10938,370
10939,366
10940,357
10941,351
10942,350
10943,352
10944,353
10945,351
10946,350
10947,352
10948,353
10949,352
10950,350
10951,350
10952,351
10953,352
10954,354
10955,353
10956,353
10957,350
10958,345
10959,344
10960,351
10961,380
10962,440
10963,519
10964,581
10965,573
10966,496
10967,406
10968,355
10969,350
10970,355
10971,353
10972,343
10973,335
10974,335
10975,337
10976,338
10977,338
10978,339
10979,340
10980,340
10981,341
10982,339
10983,340
10984,342
10985,342
10986,343
10987,343
10988,341
10989,341
10990,342
10991,341
10992,343
10993,346
10994,347
10995,346
10996,343
10997,345
10998,347
10999,348
11000,349
11001,351
11002,353
11003,353
11004,353
11005,354
11006,355
11007,356
11008,358
11009,359
11010,359
11011,359
11012,358
11013,357
11014,357
11015,357
11016,355
11017,352
11018,349
11019,348
11020,348
11021,348
11022,348
11023,344
11024,344
11025,346
11026,346
11027,346
11028,346
11029,347
11030,348
11031,348
11032,346
11033,344
11034,344
11035,344
11036,343
11037,344
11038,347
11039,348
11040,348
11041,347
11042,349
11043,350
11044,350
11045,350
11046,350
11047,349
11048,349
11049,349
11050,347
11051,346
11052,347
11053,350
11054,349
11055,348
11056,348
11057,348
11058,349
11059,348
11060,347
11061,347
11062,346
11063,348
11064,349
11065,349
11066,348
11067,349
11068,353
11069,356
11070,356
11071,355
11072,359
11073,369
11074,376
11075,369
11076,365
11077,361
11078,359
11079,354
11080,346
11081,345
11082,344
11083,347
11084,345
11085,344
11086,345
11087,345
11088,345
11089,345
11090,346
11091,345
11092,344
11093,344
11094,346
11095,348
11096,347
11097,345
11098,342
11099,344
11100,356
11101,398
11102,467
11103,546
11104,593
11105,556
11106,466
11107,379
11108,347
11109,352
11110,353
11111,344
11112,334
11113,332
11114,331
11115,333
11116,332
11117,336
11118,336
11119,334
11120,336
11121,336
11122,337
11123,336
11124,337
11125,338
11126,337
11127,338
11128,338
11129,339
11130,336
11131,339
11132,340
11133,341
11134,341
11135,341
11136,344
11137,344
11138,347
11139,347
11140,350
11141,352
11142,352
11143,354
11144,353
11145,354
11146,356
11147,360
11148,362
11149,361
11150,362
11151,361
11152,362
11153,359
11154,358
11155,354
11156,351
11157,347
11158,346
11159,349
11160,347
11161,348
11162,347
11163,350
11164,350
11165,348
11166,347
11167,345
11168,346
11169,345
11170,346
11171,341
11172,342
11173,345
11174,344
11175,346
11176,343
11177,345
11178,345
11179,346
11180,346
11181,344
11182,348
11183,348
11184,350
11185,348
11186,346
11187,347
11188,351
11189,352
11190,350
11191,349
11192,347
11193,348
11194,351
11195,351
11196,350
11197,354
11198,354
11199,356
11200,368
11201,347
11202,348
11203,349
11204,350
11205,353
11206,353
11207,354
11208,355
11209,357
11210,360
11211,361
11212,361
11213,361
11214,360
11215,360
11216,359
11217,358
11218,357
11219,354
11220,350
11221,348
11222,350
11223,351
11224,349
11225,347
11226,347
11227,349
11228,350
11229,351
11230,352
11231,350
11232,351
11233,352
11234,350
11235,350
11236,351
11237,350
11238,348
11239,348
11240,349
11241,349
11242,349
11243,348
11244,350
11245,352
11246,352
11247,351
11248,351
11249,352
11250,351
11251,350
11252,351
11253,353
11254,353
11255,353
11256,353
11257,354
11258,354
11259,354
11260,355
11261,354
11262,355
11263,355
11264,354
11265,353
11266,353
11267,352
11268,352
11269,353
11270,354
11271,353
11272,354
11273,355
11274,353
11275,353
11276,353
11277,355
11278,359
11279,363
11280,362
11281,361
11282,361
11283,370
11284,380
11285,380
11286,373
11287,370
11288,370
11289,366
11290,357
11291,351
11292,350
11293,352
11294,353
11295,351
11296,350
11297,352
11298,353
11299,352
11300,350
11301,350
11302,351
11303,352
11304,354
11305,353
11306,353
11307,350
11308,345
11309,344
11310,351
11311,380
11312,440
11313,519
11314,581
11315,573
11316,496
11317,406
11318,355
11319,350
11320,355
11321,353
11322,343
11323,335
11324,335
11325,337
11326,338
11327,338
11328,339
11329,340
11330,340
11331,341
11332,339
11333,340
11334,342
11335,342
11336,343
11337,343
11338,341
11339,341
11340,342
11341,341
11342,343
11343,346
11344,347
11345,346
11346,343
11347,345
11348,347
11349,348
11350,349
11351,351
11352,353
11353,353
11354,353
11355,354
11356,355
11357,356
11358,358
11359,359
11360,359
11361,359
11362,358
11363,357
11364,357
11365,357
11366,355
11367,352
11368,349
11369,348
11370,348
11371,348
11372,348
11373,344
11374,344
11375,346
11376,346
11377,346
11378,346
11379,347
11380,348
11381,348
11382,346
11383,344
11384,344
11385,344
11386,343
11387,344
11388,347
11389,348
11390,348
11391,347
11392,349
11393,350
11394,350
11395,350
11396,350
11397,349
11398,349
11399,349
11400,347
11401,346
11402,347
11403,350
11404,349
11405,348
11406,348
11407,348
11408,349
11409,348
11410,347
11411,347
11412,346
11413,348
11414,349
11415,349
11416,348
11417,349
11418,353
11419,356
11420,356
11421,355
11422,359
11423,369
11424,376
11425,369
11426,365
11427,361
11428,359
11429,354
11430,346
11431,345
11432,344
11433,347
11434,345
11435,344
11436,345
11437,345
11438,345
11439,345
11440,346
11441,345
11442,344
11443,344
11444,346
11445,348
11446,347
11447,345
11448,342
11449,344
11450,356
11451,398
11452,467
11453,546
11454,593
11455,556
11456,466
11457,379
11458,347
11459,352
11460,353
11461,344
11462,334
11463,332
11464,331
11465,333
11466,332
11467,336
11468,336
11469,334
11470,336
11471,336
11472,337
11473,336
11474,337
11475,338
11476,337
11477,338
11478,338
11479,339
11480,336
11481,339
11482,340
11483,341
11484,341
11485,341
11486,344
11487,344
11488,347
11489,347
11490,350
11491,352
11492,352
11493,354
11494,353
11495,354
11496,356
11497,360
11498,362
11499,361
11500,362
11501,361
11502,362
11503,359
11504,358
11505,354
11506,351
11507,347
11508,346
11509,349
11510,347
11511,348
11512,347
11513,350
11514,350
11515,348
11516,347
11517,345
11518,346
11519,345
11520,346
11521,341
11522,342
11523,345
11524,344
11525,346
11526,343
11527,345
11528,345
11529,346
11530,346
11531,344
11532,348
11533,348
11534,350
11535,348
11536,346
11537,347
11538,351
11539,352
11540,350
11541,349
11542,347
11543,348
11544,351
11545,351
11546,350
11547,354
11548,354
11549,356
11550,368
11551,347
11552,348
11553,349
11554,350
11555,353
11556,353
11557,354
11558,355
11559,357
11560,360
11561,361
11562,361
11563,361
11564,360
11565,360
11566,359
11567,358
11568,357
11569,354
11570,350
11571,348
11572,350
11573,351
11574,349
11575,347
11576,347
11577,349
11578,350
11579,351
11580,352
11581,350
11582,351
11583,352
11584,350
11585,350
11586,351
11587,350
11588,348
11589,348
11590,349
11591,349
11592,349
11593,348
11594,350
11595,352
11596,352
11597,351
11598,351
11599,352
11600,351
11601,350
11602,351
11603,353
11604,353
11605,353
11606,353
11607,354
11608,354
11609,354
11610,355
11611,354
11612,355
11613,355
11614,354
11615,353
11616,353
11617,352
11618,352
11619,353
11620,354
11621,353
11622,354
11623,355
11624,353
11625,353
11626,353
11627,355
11628,359
11629,363
11630,362
11631,361
11632,361
11633,370
11634,380
11635,380
11636,373
11637,370
11638,370
11639,366
11640,357
11641,351
11642,350
11643,352
11644,353
11645,351
11646,350
11647,352
11648,353
11649,352
11650,350
11651,350
11652,351
11653,352
11654,354
11655,353
11656,353
11657,350
11658,345
11659,344
11660,351
11661,380
11662,440
11663,519
11664,581
11665,573
11666,496
11667,406
11668,355
11669,350
11670,355
11671,353
11672,343
11673,335
11674,335
11675,337
11676,338
11677,338
11678,339
11679,340
11680,340
11681,341
11682,339
11683,340
11684,342
11685,342
11686,343
11687,343
11688,341
11689,341
11690,342
11691,341
11692,343
11693,346
11694,347
11695,346
11696,343
11697,345
11698,347
11699,348
11700,349
11701,351
11702,353
11703,353
11704,353
11705,354
11706,355
11707,356
11708,358
11709,359
11710,359
11711,359
11712,358
11713,357
11714,357
11715,357
11716,355
11717,352
11718,349
11719,348
11720,348
11721,348
11722,348
11723,344
11724,344
11725,346
11726,346
11727,346
11728,346
11729,347
11730,348
11731,348
11732,346
11733,344
11734,344
11735,344
11736,343
11737,344
11738,347
11739,348
11740,348
11741,347
11742,349
11743,350
11744,350
11745,350
11746,350
11747,349
11748,349
11749,349
11750,347
11751,346
11752,347
11753,350
11754,349
11755,348
11756,348
11757,348
11758,349
11759,348
11760,347
11761,347
11762,346
11763,348
11764,349
11765,349
11766,348
11767,349
11768,353
11769,356
11770,356
11771,355
11772,359
11773,369
11774,376
11775,369
11776,365
11777,361
11778,359
11779,354
11780,346
11781,345
11782,344
11783,347
11784,345
11785,344
11786,345
11787,345
11788,345
11789,345
11790,346
11791,345
11792,344
11793,344
11794,346
11795,348
11796,347
11797,345
11798,342
11799,344
11800,356
11801,398
11802,467
11803,546
11804,593
11805,556
11806,466
11807,379
11808,347
11809,352
11810,353
11811,344
11812,334
11813,332
11814,331
11815,333
11816,332
11817,336
11818,336
11819,334
11820,336
11821,336
11822,337
11823,336
11824,337
11825,338
11826,337
11827,338
11828,338
11829,339
11830,336
11831,339
11832,340
11833,341
11834,341
11835,341
11836,344
11837,344
11838,347
11839,347
11840,350
11841,352
11842,352
11843,354
11844,353
11845,354
11846,356
11847,360
11848,362
11849,361
11850,362
11851,361
11852,362
11853,359
11854,358
11855,354
11856,351
11857,347
11858,346
11859,349
11860,347
11861,348
11862,347
11863,350
11864,350
11865,348
11866,347
11867,345
11868,346
11869,345
11870,346
11871,341
11872,342
11873,345
11874,344
11875,346
11876,343
11877,345
11878,345
11879,346
11880,346
11881,344
11882,348
11883,348
11884,350
11885,348
11886,346
11887,347
11888,351
11889,352
11890,350
11891,349
11892,347
11893,348
11894,351
11895,351
11896,350
11897,354
11898,354
11899,356
11900,368
11901,347
11902,348
11903,349
11904,350
11905,353
11906,353
11907,354
11908,355
11909,357
11910,360
11911,361
11912,361
11913,361
11914,360
11915,360
11916,359
11917,358
11918,357
11919,354
11920,350
11921,348
11922,350
11923,351
11924,349
11925,347
11926,347
11927,349
11928,350
11929,351
11930,352
11931,350
11932,351
11933,352
11934,350
11935,350
11936,351
11937,350
11938,348
11939,348
11940,349
11941,349
11942,349
11943,348
11944,350
11945,352
11946,352
11947,351
11948,351
11949,352
11950,351
11951,350
11952,351
11953,353
11954,353
11955,353
11956,353
11957,354
11958,354
11959,354
11960,355
11961,354
11962,355
11963,355
11964,354
11965,353
11966,353
11967,352
11968,352
11969,353
11970,354
11971,353
11972,354
11973,355
11974,353
11975,353
11976,353
11977,355
11978,359
11979,363
11980,362
11981,361
11982,361
11983,370
11984,380
11985,380
11986,373
11987,370
11988,370
11989,366
11990,357
11991,351
11992,350
11993,352
11994,353
11995,351
11996,350
11997,352
11998,353
11999,352
12000,350
12001,350
12002,351
12003,352
12004,354
12005,353
12006,353
12007,350
12008,345
12009,344
12010,351
12011,380
12012,440
12013,519
12014,581
12015,573
12016,496
12017,406
12018,355
12019,350
12020,355
12021,353
12022,343
12023,335
12024,335
12025,337
12026,338
12027,338
12028,339
12029,340
12030,340
12031,341
12032,339
12033,340
12034,342
12035,342
12036,343
12037,343
12038,341
12039,341
12040,342
12041,341
12042,343
12043,346
12044,347
12045,346
12046,343
12047,345
12048,347
12049,348
12050,349
12051,351
12052,353
12053,353
12054,353
12055,354
12056,355
12057,356
12058,358
12059,359
12060,359
12061,359
12062,358
12063,357
12064,357
12065,357
12066,355
12067,352
12068,349
12069,348
12070,348
12071,348
12072,348
12073,344
12074,344
12075,346
12076,346
12077,346
12078,346
12079,347
12080,348
12081,348
12082,346
12083,344
12084,344
12085,344
12086,343
12087,344
12088,347
12089,348
12090,348
12091,347
12092,349
12093,350
12094,350
12095,350
12096,350
12097,349
12098,349
12099,349
12100,347
12101,346
12102,347
12103,350
12104,349
12105,348
12106,348
12107,348
12108,349
12109,348
12110,347
12111,347
12112,346
12113,348
12114,349
12115,349
12116,348
12117,349
12118,353
12119,356
12120,356
12121,355
12122,359
12123,369
12124,376
12125,369
12126,365
12127,361
12128,359
12129,354
12130,346
12131,345
12132,344
12133,347
12134,345
12135,344
12136,345
12137,345
12138,345
12139,345
12140,346
12141,345
12142,344
12143,344
12144,346
12145,348
12146,347
12147,345
12148,342
12149,344
12150,356
12151,398
12152,467
12153,546
12154,593
12155,556
12156,466
12157,379
12158,347
12159,352
12160,353
12161,344
12162,334
12163,332
12164,331
12165,333
12166,332
12167,336
12168,336
12169,334
12170,336
12171,336
12172,337
12173,336
12174,337
12175,338
12176,337
12177,338
12178,338
12179,339
12180,336
12181,339
12182,340
12183,341
12184,341
12185,341
12186,344
12187,344
12188,347
12189,347
12190,350
12191,352
12192,352
12193,354
12194,353
12195,354
12196,356
12197,360
12198,362
12199,361
12200,362
12201,361
12202,362
12203,359
12204,358
12205,354
12206,351
12207,347
12208,346
12209,349
12210,347
12211,348
12212,347
12213,350
12214,350
12215,348
12216,347
12217,345
12218,346
12219,345
12220,346
12221,341
12222,342
12223,345
12224,344
12225,346
12226,343
12227,345
12228,345
12229,346
12230,346
12231,344
12232,348
12233,348
12234,350
12235,348
12236,346
12237,347
12238,351
12239,352
12240,350
12241,349
12242,347
12243,348
12244,351
12245,351
12246,350
12247,354
12248,354
12249,356
12250,368
12251,347
12252,348
12253,349
12254,350
12255,353
12256,353
12257,354
12258,355
12259,357
12260,360
12261,361
12262,361
12263,361
12264,360
12265,360
12266,359
12267,358
12268,357
12269,354
12270,350
12271,348
12272,350
12273,351
12274,349
12275,347
12276,347
12277,349
12278,350
12279,351
12280,352
12281,350
12282,351
12283,352
12284,350
12285,350
12286,351
12287,350
12288,348
12289,348
12290,349
12291,349
12292,349
12293,348
12294,350
12295,352
12296,352
12297,351
12298,351
12299,352
12300,351
12301,350
12302,351
12303,353
12304,353
12305,353
12306,353
12307,354
12308,354
12309,354
12310,355
12311,354
12312,355
12313,355
12314,354
12315,353
12316,353
12317,352
12318,352
12319,353
12320,354
12321,353
12322,354
12323,355
12324,353
12325,353
12326,353
12327,355
12328,359
12329,363
12330,362
12331,361
12332,361
12333,370
12334,380
12335,380
12336,373
12337,370
12338,370
12339,366
12340,357
12341,351
12342,350
12343,352
12344,353
12345,351
12346,350
12347,352
12348,353
12349,352
12350,350
12351,350
12352,351
12353,352
12354,354
12355,353
12356,353
12357,350
12358,345
12359,344
12360,351
12361,380
12362,440
12363,519
12364,581
12365,573
12366,496
12367,406
12368,355
12369,350
12370,355
12371,353
12372,343
12373,335
12374,335
12375,337
12376,338
12377,338
12378,339
12379,340
12380,340
12381,341
12382,339
12383,340
12384,342
12385,342
12386,343
12387,343
12388,341
12389,341
12390,342
12391,341
12392,343
12393,346
12394,347
12395,346
12396,343
12397,345
12398,347
12399,348
12400,349
12401,351
12402,353
12403,353
12404,353
12405,354
12406,355
12407,356
12408,358
12409,359
12410,359
12411,359
12412,358
12413,357
12414,357
12415,357
12416,355
12417,352
12418,349
12419,348
12420,348
12421,348
12422,348
12423,344
12424,344
12425,346
12426,346
12427,346
12428,346
12429,347
12430,348
12431,348
12432,346
12433,344
12434,344
12435,344
12436,343
12437,344
12438,347
12439,348
12440,348
12441,347
12442,349
12443,350
12444,350
12445,350
12446,350
12447,349
12448,349
12449,349
12450,347
12451,346
12452,347
12453,350
12454,349
12455,348
12456,348
12457,348
12458,349
12459,348
12460,347
12461,347
12462,346
12463,348
12464,349
12465,349
12466,348
12467,349
12468,353
12469,356
12470,356
12471,355
12472,359
12473,369
12474,376
12475,369
12476,365
12477,361
12478,359
12479,354
12480,346
12481,345
12482,344
12483,347
12484,345
12485,344
12486,345
12487,345
12488,345
12489,345
12490,346
12491,345
12492,344
12493,344
12494,346
12495,348
12496,347
12497,345
12498,342
12499,344
12500,356
12501,398
12502,467
12503,546
12504,593
12505,556
12506,466
12507,379
12508,347
12509,352
12510,353
12511,344
12512,334
12513,332
12514,331
12515,333
12516,332
12517,336
12518,336
12519,334
12520,336
12521,336
12522,337
12523,336
12524,337
12525,338
12526,337
12527,338
12528,338
12529,339
12530,336
12531,339
12532,340
12533,341
12534,341
12535,341
12536,344
12537,344
12538,347
12539,347
12540,350
12541,352
12542,352
12543,354
12544,353
12545,354
12546,356
12547,360
12548,362
12549,361
12550,362
12551,361
12552,362
12553,359
12554,358
12555,354
12556,351
12557,347
12558,346
12559,349
12560,347
12561,348
12562,347
12563,350
12564,350
12565,348
12566,347
12567,345
12568,346
12569,345
12570,346
12571,341
12572,342
12573,345
12574,344
12575,346
12576,343
12577,345
12578,345
12579,346
12580,346
12581,344
12582,348
12583,348
12584,350
12585,348
12586,346
12587,347
12588,351
12589,352
12590,350
12591,349
12592,347
12593,348
12594,351
12595,351
12596,350
12597,354
12598,354
12599,356
12600,368
12601,347
12602,348
12603,349
12604,350
12605,353
12606,353
12607,354
12608,355
12609,357
12610,360
12611,361
12612,361
12613,361
12614,360
12615,360
12616,359
12617,358
12618,357
12619,354
12620,350
12621,348
12622,350
12623,351
12624,349
12625,347
12626,347
12627,349
12628,350
12629,351
12630,352
12631,350
12632,351
12633,352
12634,350
12635,350
12636,351
12637,350
12638,348
12639,348
12640,349
12641,349
12642,349
12643,348
12644,350
12645,352
12646,352
12647,351
12648,351
12649,352
12650,351
12651,350
12652,351
12653,353
12654,353
12655,353
12656,353
12657,354
12658,354
12659,354
12660,355
12661,354
12662,355
12663,355
12664,354
12665,353
12666,353
12667,352
12668,352
12669,353
12670,354
12671,353
12672,354
12673,355
12674,353
12675,353
12676,353
12677,355
12678,359
12679,363
12680,362
12681,361
12682,361
12683,370
12684,380
12685,380
12686,373
12687,370
12688,370
12689,366
12690,357
12691,351
12692,350
12693,352
12694,353
12695,351
12696,350
12697,352
12698,353
12699,352
12700,350
12701,350
12702,351
12703,352
12704,354
12705,353
12706,353
12707,350
12708,345
12709,344
12710,351
12711,380
12712,440
12713,519
12714,581
12715,573
12716,496
12717,406
12718,355
12719,350
12720,355
12721,353
12722,343
12723,335
12724,335
12725,337
12726,338
12727,338
12728,339
12729,340
12730,340
12731,341
12732,339
12733,340
12734,342
12735,342
12736,343
12737,343
12738,341
12739,341
12740,342
12741,341
12742,343
12743,346
12744,347
12745,346
12746,343
12747,345
12748,347
12749,348
12750,349
12751,351
12752,353
12753,353
12754,353
12755,354
12756,355
12757,356
12758,358
12759,359
12760,359
12761,359
12762,358
12763,357
12764,357
12765,357
12766,355
12767,352
12768,349
12769,348
12770,348
12771,348
12772,348
12773,344
12774,344
12775,346
12776,346
12777,346
12778,346
12779,347
12780,348
12781,348
12782,346
12783,344
12784,344
12785,344
12786,343
12787,344
12788,347
12789,348
12790,348
12791,347
12792,349
12793,350
12794,350
12795,350
12796,350
12797,349
12798,349
12799,349
12800,347
12801,346
12802,347
12803,350
12804,349
12805,348
12806,348
12807,348
12808,349
12809,348
12810,347
12811,347
12812,346
12813,348
12814,349
12815,349
12816,348
12817,349
12818,353
12819,356
12820,356
12821,355
12822,359
12823,369
12824,376
12825,369
12826,365
12827,361
12828,359
12829,354
12830,346
12831,345
12832,344
12833,347
12834,345
12835,344
12836,345
12837,345
12838,345
12839,345
12840,346
12841,345
12842,344
12843,344
12844,346
12845,348
12846,347
12847,345
12848,342
12849,344
12850,356
12851,398
12852,467
12853,546
12854,593
12855,556
12856,466
12857,379
12858,347
12859,352
12860,353
12861,344
12862,334
12863,332
12864,331
12865,333
12866,332
12867,336
12868,336
12869,334
12870,336
12871,336
12872,337
12873,336
12874,337
12875,338
12876,337
12877,338
12878,338
12879,339
12880,336
12881,339
12882,340
12883,341
12884,341
12885,341
12886,344
12887,344
12888,347
12889,347
12890,350
12891,352
12892,352
12893,354
12894,353
12895,354
12896,356
12897,360
12898,362
12899,361
12900,362
12901,361
12902,362
12903,359
12904,358
12905,354
12906,351
12907,347
12908,346
12909,349
12910,347
12911,348
12912,347
12913,350
12914,350
12915,348
12916,347
12917,345
12918,346
12919,345
12920,346
12921,341
12922,342
12923,345
12924,344
12925,346
12926,343
12927,345
12928,345
12929,346
12930,346
12931,344
12932,348
12933,348
12934,350
12935,348
12936,346
12937,347
12938,351
12939,352
12940,350
12941,349
12942,347
12943,348
12944,351
12945,351
12946,350
12947,354
12948,354
12949,356
12950,368
12951,347
12952,348
12953,349
12954,350
12955,353
12956,353
12957,354
12958,355
12959,357
12960,360
12961,361
12962,361
12963,361
12964,360
12965,360
12966,359
12967,358
12968,357
12969,354
12970,350
12971,348
12972,350
12973,351
12974,349
12975,347
12976,347
12977,349
12978,350
12979,351
12980,352
12981,350
12982,351
12983,352
12984,350
12985,350
12986,351
12987,350
12988,348
12989,348
12990,349
12991,349
12992,349
12993,348
12994,350
12995,352
12996,352
12997,351
12998,351
12999,352
13000,351
13001,350
13002,351
13003,353
13004,353
13005,353
13006,353
13007,354
13008,354
13009,354
13010,355
13011,354
13012,355
13013,355
13014,354
13015,353
13016,353
13017,352
13018,352
13019,353
13020,354
13021,353
13022,354
13023,355
13024,353
13025,353
13026,353
13027,355
13028,359
13029,363
13030,362
13031,361
13032,361
13033,370
13034,380
13035,380
13036,373
13037,370
13038,370
13039,366
13040,357
13041,351
13042,350
13043,352
13044,353
13045,351
13046,350
13047,352
13048,353
13049,352
13050,350
13051,350
13052,351
13053,352
13054,354
13055,353
13056,353
13057,350
13058,345
13059,344
13060,351
13061,380
13062,440
13063,519
13064,581
13065,573
13066,496
13067,406
13068,355
13069,350
13070,355
13071,353
13072,343
13073,335
13074,335
13075,337
13076,338
13077,338
13078,339
13079,340
13080,340
13081,341
13082,339
13083,340
13084,342
13085,342
13086,343
13087,343
13088,341
13089,341
13090,342
13091,341
13092,343
13093,346
13094,347
13095,346
13096,343
13097,345
13098,347
13099,348
13100,349
13101,351
13102,353
13103,353
13104,353
13105,354
13106,355
13107,356
13108,358
13109,359
