Time,Data
1,3597
2,3597
3,3602
4,3582
5,3589
6,3583
7,3583
8,3581
9,3577
10,3582
11,3577
12,3577
13,3586
14,3565
15,3562
16,3569
17,3569
18,3558
19,3572
20,3553
21,3550
22,3550
23,3556
24,3554
25,3522
26,3550
27,3550
28,3542
29,3532
30,3535
31,3536
32,3536
33,3515
34,3527
35,3530
36,3530
37,3523
38,3526
39,3528
40,3526
41,3526
42,3530
43,3522
44,3520
45,3520
46,3520
47,3517
48,3518
49,3522
50,3516
51,3516
52,3513
53,3514
54,3524
55,3515
56,3515
57,3515
58,3514
59,3515
60,3504
61,3504
62,3514
63,3514
64,3505
65,3513
66,3513
67,3512
68,3507
69,3503
70,3515
71,3515
72,3520
73,3514
74,3520
75,3503
76,3503
77,3499
78,3503
79,3520
80,3520
81,3509
82,3501
83,3511
84,3508
85,3508
86,3515
87,3500
88,3508
89,3499
90,3499
91,3507
92,3500
93,3488
94,3510
95,3510
96,3511
97,3506
98,3518
99,3518
100,3518
101,3512
102,3521
103,3514
104,3510
105,3510
106,3515
107,3509
108,3519
109,3517
110,3517
111,3509
112,3528
113,3522
114,3517
115,3517
116,3513
117,3522
118,3525
119,3528
120,3528
121,3529
122,3524
123,3530
124,3530
125,3522
126,3527
127,3531
128,3524
129,3524
130,3517
131,3524
132,3529
133,3530
134,3530
135,3521
136,3529
137,3537
138,3511
139,3511
140,3525
141,3518
142,3530
143,3525
144,3525
145,3525
146,3536
147,3520
148,3521
149,3521
150,3518
151,3534
152,3516
153,3520
154,3520
155,3517
156,3523
157,3513
158,3535
159,3535
160,3523
161,3520
162,3515
163,3511
164,3511
165,3512
166,3519
167,3521
168,3521
169,3515
170,3517
171,3511
172,3523
173,3523
174,3522
175,3525
176,3535
177,3516
178,3516
179,3530
180,3529
181,3524
182,3516
183,3516
184,3544
185,3521
186,3533
187,3533
188,3533
189,3526
190,3538
191,3540
192,3548
193,3548
194,3544
195,3545
196,3540
197,3540
198,3540
199,3543
200,3545
201,3544
202,3546
203,3546
204,3551
205,3552
206,3548
207,3546
208,3546
209,3549
210,3561
211,3554
212,3554
213,3556
214,3557
215,3575
216,3558
217,3558
218,3560
219,3555
220,3565
221,3567
222,3567
223,3558
224,3566
225,3574
226,3567
227,3567
228,3566
229,3567
230,3583
231,3564
232,3564
233,3554
234,3567
235,3567
236,3566
237,3566
238,3556
239,3558
240,3571
241,3568
242,3568
243,3572
244,3563
245,3565
246,3567
247,3567
248,3572
249,3559
250,3567
251,3569
252,3569
253,3564
254,3570
255,3571
256,3571
257,3568
258,3572
259,3580
260,3573
261,3573
262,3567
263,3573
264,3566
265,3575
266,3575
267,3574
268,3578
269,3577
270,3571
271,3571
272,3584
273,3569
274,3579
275,3582
276,3582
277,3580
278,3593
279,3590
280,3587
281,3587
282,3577
283,3593
284,3586
285,3585
286,3585
287,3587
288,3587
289,3590
290,3589
291,3589
292,3595
293,3594
294,3591
295,3596
296,3596
297,3589
298,3600
299,3604
300,3604
301,3603
302,3603
303,3600
304,3607
305,3607
306,3595
307,3596
308,3601
309,3601
310,3601
311,3599
312,3596
313,3604
314,3604
315,3604
316,3602
317,3588
318,3611
319,3605
320,3605
321,3608
322,3593
323,3607
324,3607
325,3607
326,3607
327,3603
328,3602
329,3601
330,3601
331,3605
332,3604
333,3597
334,3594
335,3594
336,3600
337,3599
338,3593
339,3594
340,3594
341,3591
342,3591
343,3575
344,3575
345,3583
346,3583
347,3581
348,3572
349,3572
350,3577
351,3567
352,3577
353,3567
354,3567
355,3554
356,3562
357,3566
358,3541
359,3541
360,3549
361,3548
362,3550
363,3533
364,3533
365,3543
366,3542
367,3526
368,3532
369,3532
370,3531
371,3535
372,3538
373,3525
374,3525
375,3525
376,3521
377,3518
378,3521
379,3521
380,3520
381,3515
382,3520
383,3515
384,3515
385,3520
386,3517
387,3512
388,3512
389,3510
390,3518
391,3515
392,3512
393,3512
394,3516
395,3512
396,3494
397,3508
398,3508
399,3509
400,3508
401,3503
402,3508
403,3508
404,3515
405,3505
406,3511
407,3509
408,3509
409,3508
410,3514
411,3514
412,3508
413,3508
414,3518
415,3503
416,3511
417,3515
418,3515
419,3509
420,3510
421,3507
422,3507
423,3507
424,3505
425,3512
426,3503
427,3501
428,3501
429,3511
430,3507
431,3522
432,3522
433,3504
434,3507
435,3508
436,3513
437,3513
438,3512
439,3519
440,3516
441,3517
442,3517
443,3512
444,3506
445,3494
446,3511
447,3511
448,3510
449,3514
450,3514
451,3506
452,3506
453,3515
454,3518
455,3524
456,3518
457,3518
458,3521
459,3520
460,3530
461,3531
462,3531
463,3518
464,3525
465,3526
466,3534
467,3534
468,3537
469,3534
470,3525
471,3532
472,3532
473,3531
474,3529
475,3535
476,3535
477,3536
478,3537
479,3553
480,3532
481,3532
482,3536
483,3534
484,3537
485,3538
486,3538
487,3539
488,3548
489,3549
490,3538
491,3538
492,3539
493,3542
494,3557
495,3547
496,3547
497,3548
498,3551
499,3551
500,3547
501,3547
502,3553
503,3556
504,3552
505,3547
506,3547
507,3553
508,3552
509,3547
510,3558
511,3558
512,3543
513,3561
514,3557
515,3556
516,3556
517,3567
518,3559
519,3564
520,3564
521,3561
522,3561
523,3565
524,3555
525,3555
526,3559
527,3554
528,3555
529,3556
530,3556
531,3561
532,3563
533,3568
534,3573
535,3573
536,3578
537,3570
538,3579
539,3562
540,3562
541,3577
542,3567
543,3587
544,3568
545,3568
546,3572
547,3584
548,3582
549,3571
550,3571
551,3580
552,3577
553,3592
554,3589
555,3589
556,3579
557,3583
558,3579
559,3588
560,3588
561,3585
562,3594
563,3579
564,3579
565,3587
566,3589
567,3592
568,3587
569,3587
570,3591
571,3580
572,3594
573,3592
574,3592
575,3592
576,3591
577,3601
578,3590
579,3590
580,3594
581,3588
582,3593
583,3594
584,3594
585,3597
586,3603
587,3592
588,3597
589,3597
590,3588
591,3599
592,3599
593,3601
594,3601
595,3590
596,3615
597,3592
598,3607
599,3607
600,3597
601,3613
602,3605
603,3600
604,3600
605,3597
606,3605
607,3610
608,3610
609,3589
610,3597
611,3610
612,3603
613,3603
614,3603
615,3600
616,3607
617,3605
618,3605
619,3608
620,3615
621,3609
622,3617
623,3617
624,3609
625,3618
626,3609
627,3600
628,3600
629,3619
630,3611
631,3601
632,3595
633,3595
634,3616
635,3606
636,3604
637,3612
638,3612
639,3606
640,3612
641,3611
642,3616
643,3616
644,3616
645,3615
646,3607
647,3606
648,3606
649,3600
650,3615
651,3600
652,3600
653,3610
654,3608
655,3617
656,3615
657,3615
658,3613
659,3614
660,3612
661,3609
662,3609
663,3639
664,3608
665,3617
666,3625
667,3625
668,3618
669,3619
670,3626
671,3617
672,3617
673,3616
674,3627
675,3613
676,3619
677,3619
678,3616
679,3618
680,3622
681,3627
682,3627
683,3619
684,3612
685,3604
686,3618
687,3618
688,3596
689,3615
690,3621
691,3615
692,3615
693,3601
694,3602
695,3604
696,3604
697,3596
698,3598
699,3600
700,3601
701,3601
702,3596
703,3588
704,3587
705,3585
706,3585
707,3587
708,3585
709,3582
710,3584
711,3584
712,3571
713,3563
714,3574
715,3568
716,3568
717,3565
718,3579
719,3562
720,3564
721,3564
722,3572
723,3553
724,3555
725,3559
726,3559
727,3556
728,3556
729,3558
730,3551
731,3551
732,3545
733,3549
734,3547
735,3539
736,3539
737,3529
738,3547
739,3541
740,3541
741,3538
742,3551
743,3543
744,3547
745,3547
746,3549
747,3540
748,3556
749,3537
750,3537
751,3546
752,3549
753,3552
754,3537
755,3537
756,3544
757,3536
758,3543
759,3547
760,3547
761,3546
762,3545
763,3543
764,3538
765,3538
766,3540
767,3552
768,3549
769,3550
770,3550
771,3540
772,3543
773,3543
774,3545
775,3545
776,3543
777,3554
778,3544
779,3547
780,3547
781,3542
782,3552
783,3561
784,3561
785,3559
786,3545
787,3547
788,3550
789,3550
790,3550
791,3548
792,3547
793,3552
794,3552
795,3550
796,3556
797,3550
798,3546
799,3546
800,3555
801,3542
802,3553
803,3552
804,3552
805,3555
806,3552
807,3556
808,3565
809,3565
810,3550
811,3556
812,3553
813,3552
814,3552
815,3554
816,3555
817,3565
818,3543
819,3543
820,3555
821,3557
822,3562
823,3559
824,3559
825,3559
826,3566
827,3562
828,3562
829,3568
830,3556
831,3557
832,3561
833,3561
834,3554
835,3569
836,3564
837,3557
838,3557
839,3565
840,3561
841,3572
842,3560
843,3560
844,3573
845,3564
846,3570
847,3568
848,3568
849,3567
850,3570
851,3570
852,3570
853,3570
854,3555
855,3567
856,3561
857,3551
858,3551
859,3561
860,3563
861,3563
862,3567
863,3567
864,3564
865,3573
866,3546
867,3569
868,3569
869,3566
870,3572
871,3572
872,3572
873,3572
874,3566
875,3565
876,3565
877,3565
878,3561
879,3571
880,3569
881,3570
882,3570
883,3567
884,3569
885,3573
886,3574
887,3574
888,3581
889,3575
890,3570
891,3573
892,3573
893,3574
894,3574
895,3579
896,3565
897,3565
898,3569
899,3575
900,3573
901,3575
902,3575
903,3577
904,3579
905,3576
906,3575
907,3575
908,3568
909,3577
910,3579
911,3579
912,3575
913,3576
914,3574
915,3585
916,3585
917,3575
918,3575
919,3575
920,3590
921,3590
922,3577
923,3573
924,3587
925,3585
926,3585
927,3583
928,3578
929,3591
930,3602
931,3602
932,3585
933,3584
934,3588
935,3593
936,3593
937,3599
938,3601
939,3589
940,3592
941,3592
942,3593
943,3588
944,3592
945,3597
946,3597
947,3592
948,3592
949,3592
950,3597
951,3597
952,3602
953,3602
954,3603
955,3603
956,3599
957,3598
958,3606
959,3606
960,3606
961,3601
962,3597
963,3601
964,3603
965,3603
966,3595
967,3595
968,3607
969,3601
970,3601
971,3594
972,3606
973,3602
974,3607
975,3607
976,3613
977,3606
978,3603
979,3600
980,3600
981,3607
982,3606
983,3599
984,3609
985,3609
986,3618
987,3616
988,3601
989,3610
990,3610
991,3609
992,3606
993,3621
994,3617
995,3617
996,3613
997,3615
998,3618
999,3618
1000,3631
1001,3619
1002,3621
1003,3624
1004,3624
1005,3613
1006,3626
1007,3633
1008,3625
1009,3625
1010,3623
1011,3617
1012,3630
1013,3632
1014,3632
1015,3639
1016,3645
1017,3633
1018,3638
1019,3638
1020,3633
1021,3647
1022,3631
1023,3626
1024,3626
1025,3636
1026,3636
1027,3640
1028,3626
1029,3626
1030,3629
1031,3640
1032,3636
1033,3630
1034,3630
1035,3641
1036,3638
1037,3630
1038,3629
1039,3629
1040,3630
1041,3628
1042,3616
1043,3616
1044,3624
1045,3622
1046,3612
1047,3611
1048,3611
1049,3616
1050,3612
1051,3621
1052,3611
1053,3611
1054,3605
1055,3608
1056,3614
1057,3599
1058,3599
1059,3614
1060,3602
1061,3599
1062,3601
1063,3601
1064,3602
1065,3602
1066,3603
1067,3599
1068,3599
1069,3598
1070,3601
1071,3593
1072,3595
1073,3595
1074,3594
1075,3598
1076,3588
1077,3603
1078,3603
1079,3597
1080,3595
1081,3608
1082,3590
1083,3590
1084,3586
1085,3596
1086,3594
1087,3594
1088,3605
1089,3595
1090,3600
1091,3588
1092,3588
1093,3592
1094,3587
1095,3586
1096,3591
1097,3591
1098,3597
1099,3589
1100,3609
1101,3591
1102,3591
1103,3590
1104,3600
1105,3597
1106,3593
1107,3593
1108,3601
1109,3599
1110,3603
1111,3594
1112,3594
1113,3592
1114,3619
1115,3603
1116,3598
1117,3598
1118,3607
1119,3606
1120,3603
1121,3594
1122,3594
1123,3604
1124,3608
1125,3598
1126,3598
1127,3608
1128,3602
1129,3612
1130,3609
1131,3609
1132,3617
1133,3608
1134,3604
1135,3604
1136,3604
1137,3613
1138,3618
1139,3612
1140,3604
1141,3604
1142,3623
1143,3598
1144,3608
1145,3608
1146,3608
1147,3609
1148,3617
1149,3622
1150,3611
1151,3611
1152,3609
1153,3611
1154,3618
1155,3608
1156,3608
1157,3616
1158,3595
1159,3606
1160,3605
1161,3605
1162,3608
1163,3601
1164,3611
1165,3598
1166,3598
1167,3613
1168,3614
1169,3593
1170,3593
1171,3598
1172,3608
1173,3603
1174,3594
1175,3594
1176,3595
1177,3598
1178,3597
1179,3602
1180,3602
1181,3593
1182,3593
1183,3593
1184,3594
1185,3594
1186,3582
1187,3572
1188,3590
1189,3581
1190,3581
1191,3591
1192,3571
1193,3583
1194,3579
1195,3579
1196,3584
1197,3584
1198,3591
1199,3576
1200,3576
1201,3576
1202,3566
1203,3578
1204,3578
1205,3578
1206,3580
1207,3584
1208,3579
1209,3565
1210,3565
1211,3575
1212,3579
1213,3573
1214,3573
1215,3577
1216,3570
1217,3578
1218,3576
1219,3576
1220,3578
1221,3572
1222,3577
1223,3578
1224,3578
1225,3578
1226,3574
1227,3582
1228,3582
1229,3582
1230,3576
1231,3580
1232,3581
1233,3581
1234,3581
1235,3572
1236,3574
1237,3589
1238,3581
1239,3581
1240,3585
1241,3589
1242,3588
1243,3573
1244,3573
1245,3590
1246,3612
1247,3597
1248,3589
1249,3589
1250,3589
1251,3592
1252,3589
1253,3600
1254,3600
1255,3587
1256,3599
1257,3582
1258,3582
1259,3583
1260,3597
1261,3601
1262,3596
1263,3596
1264,3594
1265,3595
1266,3604
1267,3600
1268,3600
1269,3600
1270,3589
1271,3599
1272,3601
1273,3601
1274,3606
1275,3607
1276,3605
1277,3618
1278,3618
1279,3605
1280,3607
1281,3608
1282,3614
1283,3614
1284,3608
1285,3610
1286,3610
1287,3613
1288,3613
1289,3613
1290,3610
1291,3612
1292,3613
1293,3613
1294,3619
1295,3620
1296,3610
1297,3617
1298,3617
1299,3623
1300,3619
1301,3625
1302,3625
1303,3627
1304,3615
1305,3623
1306,3629
1307,3629
1308,3624
1309,3621
1310,3631
1311,3621
1312,3621
1313,3645
1314,3628
1315,3621
1316,3630
1317,3630
1318,3625
1319,3629
1320,3634
1321,3632
1322,3632
1323,3637
1324,3646
1325,3636
1326,3650
1327,3650
1328,3639
1329,3645
1330,3649
1331,3647
1332,3647
1333,3646
1334,3646
1335,3645
1336,3649
1337,3649
1338,3630
1339,3658
1340,3647
1341,3643
1342,3643
1343,3645
1344,3647
1345,3648
1346,3648
1347,3637
1348,3637
1349,3641
1350,3634
1351,3634
1352,3640
1353,3628
1354,3634
1355,3634
1356,3634
1357,3628
1358,3629
1359,3624
1360,3615
1361,3615
1362,3605
1363,3605
1364,3616
1365,3621
1366,3621
1367,3609
1368,3610
1369,3609
1370,3592
1371,3592
1372,3588
1373,3611
1374,3594
1375,3588
1376,3588
1377,3595
1378,3581
1379,3591
1380,3584
1381,3584
1382,3582
1383,3572
1384,3579
1385,3575
1386,3575
1387,3576
1388,3577
1389,3576
1390,3576
1391,3572
1392,3594
1393,3571
1394,3574
1395,3574
1396,3572
1397,3568
1398,3572
1399,3571
1400,3571
1401,3568
1402,3562
1403,3574
1404,3562
1405,3562
1406,3571
1407,3568
1408,3577
1409,3564
1410,3564
1411,3562
1412,3567
1413,3564
1414,3574
1415,3574
1416,3575
1417,3564
1418,3567
1419,3563
1420,3563
1421,3568
1422,3568
1423,3569
1424,3567
1425,3567
1426,3564
1427,3559
1428,3559
1429,3553
1430,3553
1431,3562
1432,3563
1433,3561
1434,3561
1435,3562
1436,3555
1437,3563
1438,3560
1439,3560
1440,3559
1441,3559
1442,3558
1443,3563
1444,3563
1445,3563
1446,3559
1447,3564
1448,3556
1449,3556
1450,3563
1451,3563
1452,3547
1453,3556
1454,3556
1455,3557
1456,3552
1457,3564
1458,3568
1459,3568
1460,3561
1461,3559
1462,3561
1463,3558
1464,3558
1465,3559
1466,3560
1467,3553
1468,3556
1469,3556
1470,3555
1471,3563
1472,3551
1473,3544
1474,3544
1475,3554
1476,3555
1477,3555
1478,3555
1479,3559
1480,3559
1481,3557
1482,3566
1483,3566
1484,3553
1485,3553
1486,3555
1487,3554
1488,3554
1489,3534
1490,3545
1491,3562
1492,3551
1493,3551
1494,3548
1495,3546
1496,3564
1497,3546
1498,3546
1499,3559
1500,3548
1501,3545
1502,3548
1503,3548
1504,3550
1505,3546
1506,3549
1507,3547
1508,3547
1509,3548
1510,3549
1511,3550
1512,3548
1513,3548
1514,3546
1515,3544
1516,3545
1517,3548
1518,3548
1519,3542
1520,3547
1521,3546
1522,3546
1523,3546
1524,3544
1525,3541
1526,3549
1527,3549
1528,3549
1529,3544
1530,3551
1531,3546
1532,3546
1533,3549
1534,3545
1535,3549
1536,3548
1537,3548
1538,3552
1539,3558
1540,3570
1541,3543
1542,3543
1543,3558
1544,3557
1545,3563
1546,3560
1547,3560
1548,3558
1549,3556
1550,3554
1551,3545
1552,3545
1553,3574
1554,3559
1555,3563
1556,3566
1557,3566
1558,3567
1559,3566
1560,3571
1561,3568
1562,3568
1563,3568
1564,3575
1565,3573
1566,3573
1567,3573
1568,3568
1569,3577
1570,3574
1571,3574
1572,3587
1573,3578
1574,3577
1575,3572
1576,3572
1577,3584
1578,3585
1579,3587
1580,3585
1581,3585
1582,3585
1583,3585
1584,3587
1585,3587
1586,3587
1587,3584
1588,3589
1589,3588
1590,3595
1591,3595
1592,3606
1593,3595
1594,3592
1595,3593
1596,3593
1597,3605
1598,3604
1599,3604
1600,3595
1601,3595
1602,3611
1603,3603
1604,3607
1605,3603
1606,3603
1607,3606
1608,3609
1609,3609
1610,3609
1611,3614
1612,3606
1613,3619
1614,3602
1615,3602
1616,3622
1617,3610
1618,3615
1619,3613
1620,3613
1621,3620
1622,3610
1623,3622
1624,3614
1625,3614
1626,3620
1627,3614
1628,3617
1629,3613
1630,3613
1631,3637
1632,3615
1633,3634
1634,3626
1635,3626
1636,3631
1637,3628
1638,3635
1639,3638
1640,3638
1641,3635
1642,3632
1643,3634
1644,3635
1645,3635
1646,3630
1647,3643
1648,3640
1649,3630
1650,3630
1651,3651
1652,3645
1653,3642
1654,3642
1655,3645
1656,3637
1657,3631
1658,3640
1659,3640
1660,3643
1661,3648
1662,3641
1663,3639
1664,3639
1665,3633
1666,3638
1667,3636
1668,3626
1669,3626
1670,3636
1671,3627
1672,3636
1673,3629
1674,3629
1675,3627
1676,3617
1677,3618
1678,3618
1679,3618
1680,3610
1681,3619
1682,3610
1683,3625
1684,3625
1685,3604
1686,3606
1687,3599
1688,3600
1689,3600
1690,3597
1691,3591
1692,3591
1693,3587
1694,3587
1695,3581
1696,3570
1697,3578
1698,3578
1699,3563
1700,3576
1701,3580
1702,3566
1703,3566
1704,3561
1705,3562
1706,3574
1707,3556
1708,3556
1709,3536
1710,3553
1711,3553
1712,3552
1713,3552
1714,3557
1715,3544
1716,3547
1717,3554
1718,3554
1719,3538
1720,3544
1721,3545
1722,3547
1723,3547
1724,3540
1725,3538
1726,3537
1727,3538
1728,3538
1729,3534
1730,3545
1731,3537
1732,3534
1733,3534
1734,3531
1735,3534
1736,3531
1737,3546
1738,3546
1739,3539
1740,3538
1741,3532
1742,3532
1743,3524
1744,3532
1745,3533
1746,3535
1747,3535
1748,3531
1749,3525
1750,3546
1751,3532
1752,3532
1753,3534
1754,3525
1755,3529
1756,3532
1757,3532
1758,3531
1759,3530
1760,3533
1761,3527
1762,3527
1763,3546
1764,3534
1765,3528
1766,3531
1767,3531
1768,3534
1769,3523
1770,3521
1771,3525
1772,3525
1773,3523
1774,3529
1775,3507
1776,3526
1777,3526
1778,3516
1779,3523
1780,3517
1781,3519
1782,3519
1783,3518
1784,3520
1785,3516
1786,3516
1787,3511
1788,3514
1789,3519
1790,3507
1791,3507
1792,3511
1793,3514
1794,3515
1795,3517
1796,3517
1797,3515
1798,3504
1799,3512
1800,3510
1801,3510
1802,3506
1803,3505
1804,3510
1805,3510
1806,3510
1807,3516
1808,3507
1809,3510
1810,3507
1811,3507
1812,3511
1813,3510
1814,3510
1815,3501
1816,3501
1817,3507
1818,3505
1819,3508
1820,3506
1821,3506
1822,3506
1823,3510
1824,3505
1825,3508
1826,3508
1827,3508
1828,3514
1829,3528
1830,3528
1831,3509
1832,3513
1833,3523
1834,3513
1835,3513
1836,3508
1837,3508
1838,3511
1839,3509
1840,3509
1841,3516
1842,3522
1843,3529
1844,3518
1845,3518
1846,3525
1847,3518
1848,3526
1849,3523
1850,3523
1851,3516
1852,3517
1853,3527
1854,3504
1855,3504
1856,3529
1857,3519
1858,3522
1859,3523
1860,3523
1861,3524
1862,3520
1863,3525
1864,3526
1865,3526
1866,3528
1867,3527
1868,3531
1869,3517
1870,3517
1871,3525
1872,3533
1873,3535
1874,3529
1875,3529
1876,3524
1877,3542
1878,3537
1879,3537
1880,3533
1881,3539
1882,3544
1883,3548
1884,3548
1885,3536
1886,3542
1887,3553
1888,3545
1889,3545
1890,3542
1891,3552
1892,3561
1893,3555
1894,3555
1895,3554
1896,3558
1897,3557
1898,3558
1899,3558
1900,3550
1901,3561
1902,3568
1903,3571
1904,3571
1905,3561
1906,3571
1907,3562
1908,3591
1909,3591
1910,3574
1911,3575
1912,3573
1913,3578
1914,3578
1915,3586
1916,3580
1917,3590
1918,3583
1919,3583
1920,3580
1921,3584
1922,3587
1923,3587
1924,3590
1925,3588
1926,3592
1927,3581
1928,3581
1929,3598
1930,3583
1931,3581
1932,3594
1933,3594
1934,3592
1935,3588
1936,3598
1937,3593
1938,3593
1939,3601
1940,3598
1941,3591
1942,3612
1943,3612
1944,3601
1945,3607
1946,3592
1947,3603
1948,3603
1949,3612
1950,3599
1951,3607
1952,3607
1953,3607
1954,3611
1955,3612
1956,3607
1957,3612
1958,3612
1959,3614
1960,3605
1961,3613
1962,3610
1963,3610
1964,3616
1965,3617
1966,3608
1967,3608
1968,3616
1969,3614
1970,3619
1971,3616
1972,3616
1973,3618
1974,3618
1975,3628
1976,3612
1977,3612
1978,3627
1979,3607
1980,3622
1981,3617
1982,3617
1983,3618
1984,3613
1985,3619
1986,3611
1987,3611
1988,3604
1989,3621
1990,3614
1991,3607
1992,3607
1993,3605
1994,3598
1995,3592
1996,3591
1997,3591
1998,3596
1999,3586
2000,3575
2001,3587
2002,3587
2003,3586
2004,3595
2005,3568
2006,3584
2007,3584
2008,3573
2009,3569
2010,3564
2011,3564
2012,3564
2013,3568
2014,3560
2015,3556
2016,3556
2017,3559
2018,3543
2019,3553
2020,3556
2021,3556
2022,3553
2023,3547
2024,3551
2025,3554
2026,3554
2027,3540
2028,3544
2029,3545
2030,3552
2031,3552
2032,3542
2033,3541
2034,3539
2035,3533
2036,3533
2037,3535
2038,3536
2039,3532
2040,3531
2041,3531
2042,3526
2043,3536
2044,3531
2045,3537
2046,3537
2047,3533
2048,3527
2049,3519
2050,3524
2051,3524
2052,3531
2053,3524
2054,3537
2055,3537
2056,3533
2057,3527
2058,3529
2059,3533
2060,3533
2061,3530
2062,3516
2063,3530
2064,3532
2065,3532
2066,3532
2067,3533
2068,3530
2069,3527
2070,3527
2071,3525
2072,3527
2073,3521
2074,3529
2075,3529
2076,3537
2077,3539
2078,3526
2079,3525
2080,3525
2081,3527
2082,3529
2083,3522
2084,3512
2085,3512
2086,3531
2087,3528
2088,3524
2089,3535
2090,3535
2091,3527
2092,3537
2093,3534
2094,3527
2095,3527
2096,3532
2097,3539
2098,3530
2099,3530
2100,3533
2101,3533
2102,3545
2103,3535
2104,3535
2105,3523
2106,3535
2107,3543
2108,3537
2109,3537
2110,3532
2111,3536
2112,3538
2113,3536
2114,3536
2115,3535
2116,3539
2117,3534
2118,3532
2119,3532
2120,3526
2121,3535
2122,3532
2123,3545
2124,3545
2125,3533
2126,3550
2127,3541
2128,3535
2129,3535
2130,3539
2131,3546
2132,3540
2133,3542
2134,3542
2135,3540
2136,3549
2137,3541
2138,3546
2139,3546
2140,3552
2141,3546
2142,3545
2143,3545
2144,3544
2145,3533
2146,3546
2147,3563
2148,3563
2149,3552
2150,3550
2151,3549
2152,3549
2153,3549
2154,3553
2155,3554
2156,3557
2157,3553
2158,3553
2159,3553
2160,3557
2161,3554
2162,3558
2163,3558
2164,3563
2165,3554
2166,3558
2167,3566
2168,3566
2169,3562
2170,3566
2171,3565
2172,3570
2173,3570
2174,3569
2175,3559
2176,3569
2177,3561
2178,3561
2179,3577
2180,3559
2181,3575
2182,3572
2183,3572
2184,3576
2185,3583
2186,3580
2187,3580
2188,3587
2189,3584
2190,3593
2191,3592
2192,3592
2193,3591
2194,3586
2195,3583
2196,3579
2197,3579
2198,3588
2199,3580
2200,3605
2201,3602
2202,3602
2203,3595
2204,3603
2205,3604
2206,3595
2207,3595
2208,3603
2209,3599
2210,3606
2211,3611
2212,3611
2213,3604
2214,3615
2215,3611
2216,3618
2217,3618
2218,3615
2219,3604
2220,3615
2221,3621
2222,3621
2223,3624
2224,3616
2225,3611
2226,3637
2227,3637
2228,3618
2229,3623
2230,3622
2231,3622
2232,3628
2233,3633
2234,3637
2235,3637
2236,3637
2237,3633
2238,3638
2239,3639
2240,3640
2241,3640
2242,3637
2243,3641
2244,3652
2245,3643
2246,3643
2247,3653
2248,3645
2249,3650
2250,3648
2251,3648
2252,3653
2253,3643
2254,3656
2255,3651
2256,3651
2257,3652
2258,3664
2259,3659
2260,3659
2261,3659
2262,3657
2263,3670
2264,3667
2265,3673
2266,3673
2267,3670
2268,3668
2269,3675
2270,3676
2271,3676
2272,3677
2273,3666
2274,3678
2275,3678
2276,3678
2277,3688
2278,3699
2279,3702
2280,3702
2281,3699
2282,3679
2283,3697
2284,3707
2285,3707
2286,3692
2287,3699
2288,3711
2289,3700
2290,3700
2291,3709
2292,3697
2293,3720
2294,3707
2295,3707
2296,3712
2297,3714
2298,3712
2299,3715
2300,3715
2301,3712
2302,3712
2303,3704
2304,3707
2305,3707
2306,3708
2307,3707
2308,3695
2309,3704
2310,3704
2311,3702
2312,3693
2313,3690
2314,3689
2315,3689
2316,3686
2317,3694
2318,3680
2319,3680
2320,3681
2321,3677
2322,3678
2323,3677
2324,3677
2325,3664
2326,3668
2327,3656
2328,3663
2329,3663
2330,3657
2331,3657
2332,3658
2333,3645
2334,3645
2335,3650
2336,3650
2337,3649
2338,3645
2339,3645
2340,3635
2341,3643
2342,3647
2343,3633
2344,3633
2345,3629
2346,3641
2347,3626
2348,3632
2349,3632
2350,3625
2351,3623
2352,3620
2353,3616
2354,3616
2355,3612
2356,3612
2357,3611
2358,3605
2359,3605
2360,3612
2361,3606
2362,3610
2363,3610
2364,3614
2365,3601
2366,3618
2367,3612
2368,3612
2369,3598
2370,3604
2371,3592
2372,3602
2373,3602
2374,3591
2375,3593
2376,3597
2377,3586
2378,3586
2379,3598
2380,3591
2381,3603
2382,3592
2383,3592
2384,3603
2385,3593
2386,3592
2387,3596
2388,3596
2389,3602
2390,3596
2391,3592
2392,3598
2393,3598
2394,3593
2395,3597
2396,3604
2397,3596
2398,3596
2399,3591
2400,3592
2401,3596
2402,3596
2403,3596
2404,3596
2405,3602
2406,3593
2407,3593
2408,3589
2409,3596
2410,3602
2411,3596
2412,3596
2413,3602
2414,3587
2415,3598
2416,3605
2417,3605
2418,3595
2419,3596
2420,3607
2421,3590
2422,3590
2423,3603
2424,3597
2425,3622
2426,3601
2427,3601
2428,3605
2429,3607
2430,3591
2431,3605
2432,3605
2433,3599
2434,3604
2435,3603
2436,3605
2437,3605
2438,3605
2439,3611
2440,3606
2441,3610
2442,3610
2443,3614
2444,3609
2445,3606
2446,3607
2447,3607
2448,3607
2449,3615
2450,3608
2451,3608
2452,3604
2453,3610
2454,3611
2455,3614
2456,3614
2457,3611
2458,3603
2459,3615
2460,3609
2461,3609
2462,3608
2463,3612
2464,3605
2465,3618
2466,3618
2467,3616
2468,3616
2469,3621
2470,3615
2471,3615
2472,3618
2473,3619
2474,3612
2475,3618
2476,3618
2477,3621
2478,3612
2479,3623
2480,3620
2481,3620
2482,3611
2483,3623
2484,3626
2485,3625
2486,3625
2487,3629
2488,3623
2489,3624
2490,3628
2491,3628
2492,3628
2493,3626
2494,3633
2495,3633
2496,3623
2497,3634
2498,3637
2499,3633
2500,3633
2501,3640
2502,3639
2503,3635
2504,3644
2505,3644
2506,3631
2507,3632
2508,3642
2509,3649
2510,3649
2511,3646
2512,3635
2513,3637
2514,3634
2515,3634
2516,3645
2517,3625
2518,3640
2519,3635
2520,3635
2521,3647
2522,3645
2523,3638
2524,3641
2525,3641
2526,3651
2527,3646
2528,3643
2529,3642
2530,3642
2531,3650
2532,3648
2533,3646
2534,3649
2535,3649
2536,3649
2537,3653
2538,3650
2539,3650
2540,3655
2541,3658
2542,3657
2543,3651
2544,3651
2545,3654
2546,3651
2547,3645
2548,3651
2549,3651
2550,3654
2551,3643
2552,3661
2553,3654
2554,3654
2555,3657
2556,3652
2557,3659
2558,3659
2559,3659
2560,3671
2561,3663
2562,3662
2563,3669
2564,3669
2565,3661
2566,3667
2567,3664
2568,3667
2569,3667
2570,3666
2571,3684
2572,3670
2573,3669
2574,3669
2575,3672
2576,3676
2577,3669
2578,3670
2579,3670
2580,3675
2581,3663
2582,3674
2583,3674
2584,3668
2585,3667
2586,3680
2587,3680
2588,3680
2589,3680
2590,3668
2591,3679
2592,3674
2593,3674
2594,3669
2595,3668
2596,3673
2597,3676
2598,3676
2599,3679
2600,3685
2601,3675
2602,3676
2603,3676
2604,3680
2605,3680
2606,3678
2607,3681
2608,3681
2609,3683
2610,3686
2611,3674
2612,3680
2613,3680
2614,3671
2615,3677
2616,3677
2617,3669
2618,3669
2619,3673
2620,3674
2621,3680
2622,3665
2623,3665
2624,3683
2625,3672
2626,3677
2627,3677
2628,3674
2629,3679
2630,3668
2631,3663
2632,3663
2633,3659
2634,3662
2635,3663
2636,3658
2637,3658
2638,3657
2639,3662
2640,3648
2641,3654
2642,3654
2643,3640
2644,3652
2645,3650
2646,3646
2647,3646
2648,3642
2649,3641
2650,3641
2651,3632
2652,3632
2653,3632
2654,3652
2655,3630
2656,3636
2657,3636
2658,3634
2659,3646
2660,3641
2661,3634
2662,3634
2663,3628
2664,3633
2665,3626
2666,3625
2667,3625
2668,3627
2669,3630
2670,3633
2671,3633
2672,3634
2673,3618
2674,3634
2675,3627
2676,3627
2677,3628
2678,3620
2679,3632
2680,3624
2681,3624
2682,3628
2683,3627
2684,3629
2685,3644
2686,3644
2687,3641
2688,3630
2689,3632
2690,3629
2691,3629
2692,3626
2693,3629
2694,3631
2695,3629
2696,3629
2697,3642
2698,3635
2699,3630
2700,3627
2701,3627
2702,3631
2703,3632
2704,3643
2705,3638
2706,3638
2707,3635
2708,3631
2709,3628
2710,3625
2711,3625
2712,3637
2713,3637
2714,3626
2715,3626
2716,3635
2717,3646
2718,3643
2719,3646
2720,3646
2721,3641
2722,3643
2723,3646
2724,3647
2725,3647
2726,3641
2727,3651
2728,3655
2729,3647
2730,3647
2731,3655
2732,3647
2733,3654
2734,3669
2735,3669
2736,3654
2737,3669
2738,3658
2739,3661
2740,3661
2741,3661
2742,3660
2743,3659
2744,3666
2745,3666
2746,3672
2747,3671
2748,3667
2749,3679
2750,3679
2751,3668
2752,3672
2753,3670
2754,3681
2755,3681
2756,3674
2757,3682
2758,3681
2759,3681
2760,3683
2761,3674
2762,3680
2763,3679
2764,3679
2765,3691
2766,3682
2767,3688
2768,3683
2769,3683
2770,3690
2771,3683
2772,3693
2773,3688
2774,3688
2775,3692
2776,3700
2777,3698
2778,3692
2779,3692
2780,3693
2781,3699
2782,3690
2783,3701
2784,3701
2785,3701
2786,3704
2787,3701
2788,3701
2789,3701
2790,3703
2791,3709
2792,3695
2793,3710
2794,3710
2795,3709
2796,3719
2797,3712
2798,3712
2799,3715
2800,3712
2801,3716
2802,3706
2803,3706
2804,3710
2805,3702
2806,3713
2807,3717
2808,3717
2809,3712
2810,3713
2811,3727
2812,3724
2813,3724
2814,3719
2815,3723
2816,3722
2817,3731
2818,3731
2819,3733
2820,3729
2821,3736
2822,3730
2823,3730
2824,3736
2825,3735
2826,3737
2827,3725
2828,3725
2829,3738
2830,3738
2831,3734
2832,3743
2833,3743
2834,3737
2835,3748
2836,3750
2837,3745
2838,3745
2839,3754
2840,3748
2841,3743
2842,3743
2843,3752
2844,3744
2845,3756
2846,3760
2847,3760
2848,3748
2849,3750
2850,3756
2851,3756
2852,3756
2853,3756
2854,3759
2855,3760
2856,3762
2857,3762
2858,3759
2859,3757
2860,3764
2861,3773
2862,3773
2863,3790
2864,3776
2865,3765
2866,3764
2867,3764
2868,3771
2869,3770
2870,3767
2871,3757
2872,3757
2873,3766
2874,3764
2875,3754
2876,3768
2877,3768
2878,3764
2879,3766
2880,3771
2881,3768
2882,3768
2883,3769
2884,3770
2885,3760
2886,3760
2887,3765
2888,3752
2889,3774
2890,3758
2891,3758
2892,3767
2893,3766
2894,3766
2895,3764
2896,3764
2897,3774
2898,3758
2899,3766
2900,3776
2901,3776
2902,3769
2903,3764
2904,3772
2905,3765
2906,3765
2907,3768
2908,3768
2909,3766
2910,3768
2911,3768
2912,3769
2913,3768
2914,3776
2915,3762
2916,3762
2917,3764
2918,3771
2919,3770
2920,3773
2921,3773
2922,3764
2923,3769
2924,3767
2925,3773
2926,3773
2927,3777
2928,3769
2929,3786
2930,3786
2931,3773
2932,3761
2933,3771
2934,3766
2935,3766
2936,3771
2937,3776
2938,3769
2939,3769
2940,3769
2941,3775
2942,3762
2943,3774
2944,3765
2945,3765
2946,3768
2947,3758
2948,3760
2949,3761
2950,3761
2951,3762
2952,3760
2953,3751
2954,3747
2955,3747
2956,3752
2957,3756
2958,3756
2959,3754
2960,3754
2961,3746
2962,3760
2963,3748
2964,3751
2965,3751
2966,3749
2967,3754
2968,3749
2969,3749
2970,3749
2971,3746
2972,3746
2973,3752
2974,3752
2975,3746
2976,3745
2977,3759
2978,3752
2979,3752
2980,3756
2981,3754
2982,3751
2983,3745
2984,3745
2985,3749
2986,3752
2987,3756
2988,3752
2989,3752
2990,3746
2991,3754
2992,3754
2993,3743
2994,3743
2995,3767
2996,3759
2997,3755
2998,3750
2999,3750
3000,3753
3001,3756
3002,3755
3003,3754
3004,3754
3005,3752
3006,3746
3007,3759
3008,3771
3009,3771
3010,3751
3011,3762
3012,3752
3013,3760
3014,3760
3015,3758
3016,3761
3017,3745
3018,3745
3019,3754
3020,3751
3021,3753
3022,3761
3023,3761
3024,3756
3025,3754
3026,3762
3027,3756
3028,3756
3029,3754
3030,3762
3031,3769
3032,3758
3033,3758
3034,3762
3035,3764
3036,3763
3037,3763
3038,3763
3039,3764
3040,3773
3041,3752
3042,3771
3043,3771
3044,3768
3045,3771
3046,3764
3047,3771
3048,3771
3049,3771
3050,3773
3051,3770
3052,3776
3053,3776
3054,3772
3055,3776
3056,3776
3057,3776
3058,3774
3059,3771
3060,3781
3061,3778
3062,3778
3063,3779
3064,3776
3065,3774
3066,3775
3067,3775
3068,3786
3069,3785
3070,3795
3071,3787
3072,3787
3073,3783
3074,3788
3075,3807
3076,3794
3077,3794
3078,3790
3079,3783
3080,3792
3081,3784
3082,3784
3083,3788
3084,3782
3085,3792
3086,3780
3087,3780
3088,3790
3089,3783
3090,3787
3091,3796
3092,3796
3093,3785
3094,3792
3095,3791
3096,3785
3097,3785
3098,3793
3099,3795
3100,3788
3101,3788
3102,3794
3103,3785
3104,3797
3105,3794
3106,3794
3107,3786
3108,3794
3109,3798
3110,3789
3111,3789
3112,3797
3113,3798
3114,3796
3115,3802
3116,3802
3117,3795
3118,3800
3119,3795
3120,3785
3121,3785
3122,3799
3123,3793
3124,3799
3125,3791
3126,3791
3127,3798
3128,3800
3129,3789
3130,3791
3131,3791
3132,3800
3133,3797
3134,3794
3135,3792
3136,3792
3137,3797
3138,3801
3139,3805
3140,3806
3141,3806
3142,3800
3143,3801
3144,3805
3145,3805
3146,3797
3147,3798
3148,3811
3149,3799
3150,3799
3151,3790
3152,3793
3153,3807
3154,3811
3155,3811
3156,3810
3157,3811
3158,3804
3159,3802
3160,3802
3161,3813
3162,3803
3163,3801
3164,3795
3165,3795
3166,3815
3167,3802
3168,3809
3169,3802
3170,3802
3171,3809
3172,3811
3173,3810
3174,3805
3175,3805
3176,3805
3177,3813
3178,3810
3179,3818
3180,3818
3181,3811
3182,3818
3183,3805
3184,3817
3185,3817
3186,3819
3187,3815
3188,3822
3189,3822
3190,3804
3191,3811
3192,3819
3193,3810
3194,3810
3195,3819
3196,3815
3197,3807
3198,3818
3199,3818
3200,3809
3201,3814
3202,3816
3203,3820
3204,3820
3205,3813
3206,3822
3207,3817
3208,3824
3209,3824
3210,3826
3211,3826
3212,3835
3213,3822
3214,3822
3215,3824
3216,3827
3217,3823
3218,3824
3219,3824
3220,3821
3221,3833
3222,3824
3223,3831
3224,3831
3225,3825
3226,3824
3227,3820
3228,3826
3229,3826
3230,3830
3231,3828
3232,3825
3233,3825
3234,3828
3235,3834
3236,3844
3237,3824
3238,3824
3239,3838
3240,3814
3241,3829
3242,3840
3243,3840
3244,3828
3245,3827
3246,3831
3247,3820
3248,3820
3249,3833
3250,3837
3251,3830
3252,3834
3253,3834
3254,3835
3255,3834
3256,3833
3257,3828
3258,3828
3259,3844
3260,3835
3261,3830
3262,3839
3263,3839
3264,3833
3265,3835
3266,3835
3267,3825
3268,3825
3269,3827
3270,3840
3271,3837
3272,3836
3273,3836
3274,3836
3275,3838
3276,3835
3277,3835
3278,3824
3279,3830
3280,3829
3281,3826
3282,3826
3283,3831
3284,3825
3285,3837
3286,3836
3287,3836
3288,3837
3289,3819
3290,3831
3291,3825
3292,3825
3293,3831
3294,3828
3295,3831
3296,3827
3297,3827
3298,3827
3299,3825
3300,3837
3301,3833
3302,3833
3303,3831
3304,3833
3305,3826
3306,3826
3307,3826
3308,3836
3309,3832
3310,3834
3311,3824
3312,3824
3313,3824
3314,3834
3315,3835
3316,3835
3317,3832
3318,3829
3319,3836
3320,3833
3321,3833
3322,3836
3323,3830
3324,3835
3325,3832
3326,3832
3327,3835
3328,3838
3329,3845
3330,3839
3331,3839
3332,3845
3333,3840
3334,3841
3335,3827
3336,3827
3337,3853
3338,3841
3339,3848
3340,3857
3341,3857
3342,3851
3343,3847
3344,3829
3345,3841
3346,3841
3347,3850
3348,3842
3349,3849
3350,3841
3351,3841
3352,3850
3353,3855
3354,3854
3355,3861
3356,3861
3357,3855
3358,3853
3359,3861
3360,3861
3361,3864
3362,3860
3363,3857
3364,3852
3365,3852
3366,3862
3367,3870
3368,3860
3369,3874
3370,3874
3371,3864
3372,3875
3373,3861
3374,3866
3375,3866
3376,3865
3377,3873
3378,3865
3379,3855
3380,3855
3381,3863
3382,3872
3383,3864
3384,3875
3385,3875
3386,3886
3387,3862
3388,3871
3389,3878
3390,3878
3391,3878
3392,3866
3393,3877
3394,3871
3395,3871
3396,3864
3397,3879
3398,3878
3399,3869
3400,3869
3401,3878
3402,3867
3403,3874
3404,3874
3405,3881
3406,3879
3407,3882
3408,3875
3409,3875
3410,3885
3411,3875
3412,3872
3413,3876
3414,3876
3415,3876
3416,3880
3417,3874
3418,3878
3419,3878
3420,3875
3421,3876
3422,3882
3423,3875
3424,3875
3425,3872
3426,3874
3427,3875
3428,3871
3429,3871
3430,3878
3431,3873
3432,3872
3433,3880
3434,3880
3435,3875
3436,3868
3437,3881
3438,3872
3439,3872
3440,3865
3441,3867
3442,3878
3443,3881
3444,3881
3445,3875
3446,3867
3447,3872
3448,3872
3449,3867
3450,3873
3451,3870
3452,3874
3453,3874
3454,3869
3455,3865
3456,3876
3457,3875
3458,3875
3459,3858
3460,3875
3461,3872
3462,3880
3463,3880
3464,3878
3465,3876
3466,3887
3467,3882
3468,3882
3469,3871
3470,3880
3471,3876
3472,3879
3473,3879
3474,3888
3475,3887
3476,3884
3477,3890
3478,3890
3479,3881
3480,3884
3481,3878
3482,3878
3483,3878
3484,3888
3485,3871
3486,3897
3487,3881
3488,3881
3489,3885
3490,3881
3491,3887
3492,3887
3493,3884
3494,3885
3495,3896
3496,3885
3497,3885
3498,3890
3499,3886
3500,3896
3501,3890
3502,3890
3503,3897
3504,3886
3505,3896
3506,3888
3507,3888
3508,3891
3509,3894
3510,3891
3511,3887
3512,3887
3513,3909
3514,3890
3515,3889
3516,3887
3517,3887
3518,3896
3519,3898
3520,3902
3521,3897
3522,3897
3523,3897
3524,3895
3525,3890
3526,3897
3527,3897
3528,3900
3529,3896
3530,3900
3531,3900
3532,3900
3533,3907
3534,3904
3535,3907
3536,3907
3537,3904
3538,3901
3539,3919
3540,3900
3541,3900
3542,3918
3543,3909
3544,3896
3545,3906
3546,3906
3547,3908
3548,3914
3549,3921
3550,3919
3551,3919
3552,3917
3553,3920
3554,3906
3555,3912
3556,3912
3557,3913
3558,3922
3559,3920
3560,3917
3561,3917
3562,3916
3563,3920
3564,3913
3565,3921
3566,3921
3567,3922
3568,3922
3569,3922
3570,3924
3571,3924
3572,3920
3573,3922
3574,3928
3575,3926
3576,3926
3577,3935
3578,3931
3579,3941
3580,3941
3581,3921
3582,3924
3583,3923
3584,3919
3585,3919
3586,3919
3587,3919
3588,3916
3589,3919
3590,3919
3591,3919
3592,3913
3593,3916
3594,3911
3595,3911
3596,3915
3597,3913
3598,3911
3599,3902
3600,3902
3601,3901
3602,3909
3603,3910
3604,3895
3605,3895
3606,3902
3607,3903
3608,3901
3609,3907
3610,3907
3611,3901
3612,3896
3613,3897
3614,3901
3615,3901
3616,3897
3617,3899
3618,3899
3619,3906
3620,3906
3621,3896
3622,3899
3623,3893
3624,3893
3625,3892
3626,3891
3627,3896
3628,3894
3629,3894
3630,3885
3631,3878
3632,3885
3633,3884
3634,3884
3635,3890
3636,3890
3637,3896
3638,3892
3639,3892
3640,3884
3641,3889
3642,3887
3643,3888
3644,3888
3645,3887
3646,3883
3647,3892
3648,3890
3649,3890
3650,3889
3651,3885
3652,3886
3653,3887
3654,3887
3655,3889
3656,3894
3657,3886
3658,3896
3659,3896
3660,3891
3661,3886
3662,3884
3663,3889
3664,3889
3665,3880
3666,3886
3667,3876
3668,3876
3669,3882
3670,3880
3671,3878
3672,3892
3673,3892
3674,3886
3675,3887
3676,3879
3677,3883
3678,3883
3679,3888
3680,3887
3681,3889
3682,3889
3683,3889
3684,3888
3685,3891
3686,3890
3687,3887
3688,3887
3689,3885
3690,3888
3691,3891
3692,3892
3693,3892
3694,3897
3695,3889
3696,3892
3697,3892
3698,3892
3699,3890
3700,3891
3701,3878
3702,3890
3703,3890
3704,3885
3705,3879
3706,3896
3707,3896
3708,3893
3709,3889
3710,3885
3711,3881
3712,3881
3713,3880
3714,3877
3715,3887
3716,3889
3717,3889
3718,3881
3719,3875
3720,3884
3721,3885
3722,3885
3723,3877
3724,3871
3725,3893
3726,3878
3727,3878
3728,3879
3729,3870
3730,3879
3731,3878
3732,3878
3733,3871
3734,3875
3735,3877
3736,3875
3737,3875
3738,3877
3739,3874
3740,3873
3741,3876
3742,3876
3743,3876
3744,3875
3745,3875
3746,3877
3747,3877
3748,3872
3749,3879
3750,3868
3751,3868
3752,3871
3753,3877
3754,3880
3755,3889
3756,3889
3757,3878
3758,3868
3759,3878
3760,3878
3761,3878
3762,3883
3763,3875
3764,3879
3765,3881
3766,3881
3767,3878
3768,3882
3769,3883
3770,3878
3771,3878
3772,3877
3773,3886
3774,3889
3775,3882
3776,3882
3777,3880
3778,3881
3779,3887
3780,3886
3781,3886
3782,3893
3783,3898
3784,3887
3785,3891
3786,3891
3787,3884
3788,3895
3789,3890
3790,3895
3791,3895
3792,3901
3793,3898
3794,3898
3795,3898
3796,3892
3797,3891
3798,3900
3799,3898
3800,3898
3801,3892
3802,3900
3803,3902
3804,3904
3805,3904
3806,3904
3807,3902
3808,3899
3809,3896
3810,3896
3811,3909
3812,3909
3813,3901
3814,3897
3815,3897
3816,3890
3817,3896
3818,3896
3819,3895
3820,3895
3821,3905
3822,3906
3823,3912
3824,3896
3825,3896
3826,3905
3827,3904
3828,3898
3829,3906
3830,3906
3831,3902
3832,3902
3833,3910
3834,3906
3835,3906
3836,3901
3837,3910
3838,3906
3839,3906
3840,3901
3841,3898
3842,3915
3843,3901
3844,3901
3845,3899
3846,3902
3847,3905
3848,3915
3849,3915
3850,3913
3851,3917
3852,3914
3853,3913
3854,3913
3855,3903
3856,3910
3857,3920
3858,3916
3859,3916
3860,3919
3861,3921
3862,3912
3863,3919
3864,3919
3865,3925
3866,3930
3867,3918
3868,3921
3869,3921
3870,3928
3871,3934
3872,3919
3873,3930
3874,3930
3875,3944
3876,3931
3877,3927
3878,3933
3879,3933
3880,3931
3881,3932
3882,3928
3883,3928
3884,3937
3885,3933
3886,3933
3887,3928
3888,3928
3889,3940
3890,3933
3891,3921
3892,3933
3893,3933
3894,3940
3895,3935
3896,3937
3897,3942
3898,3942
3899,3935
3900,3932
3901,3935
3902,3929
3903,3929
3904,3931
3905,3934
3906,3920
3907,3930
3908,3930
3909,3927
3910,3930
3911,3932
3912,3925
3913,3925
3914,3920
3915,3929
3916,3916
3917,3922
3918,3922
3919,3920
3920,3930
3921,3920
3922,3914
3923,3914
3924,3924
3925,3920
3926,3926
3927,3926
3928,3921
3929,3913
3930,3911
3931,3910
3932,3910
3933,3912
3934,3911
3935,3916
3936,3912
3937,3912
3938,3915
3939,3911
3940,3914
3941,3922
3942,3922
3943,3899
3944,3911
3945,3908
3946,3909
3947,3909
3948,3907
3949,3914
3950,3919
3951,3910
3952,3910
3953,3899
3954,3896
3955,3900
3956,3905
3957,3905
3958,3907
3959,3902
3960,3907
3961,3900
3962,3900
3963,3888
3964,3902
3965,3903
3966,3899
3967,3899
3968,3900
3969,3903
3970,3897
3971,3897
3972,3892
3973,3896
3974,3907
3975,3907
3976,3907
3977,3903
3978,3899
3979,3902
3980,3895
3981,3895
3982,3901
3983,3892
3984,3905
3985,3893
3986,3893
3987,3897
3988,3894
3989,3900
3990,3891
3991,3891
3992,3895
3993,3888
3994,3899
3995,3891
3996,3891
3997,3894
3998,3894
3999,3890
4000,3895
4001,3895
4002,3897
4003,3900
4004,3896
4005,3883
4006,3883
4007,3889
4008,3895
4009,3896
4010,3887
4011,3887
4012,3880
4013,3901
4014,3889
4015,3889
4016,3892
4017,3897
4018,3906
4019,3888
4020,3888
4021,3890
4022,3887
4023,3891
4024,3882
4025,3882
4026,3890
4027,3881
4028,3881
4029,3893
4030,3893
4031,3889
4032,3881
4033,3884
4034,3883
4035,3883
4036,3883
4037,3880
4038,3890
4039,3874
4040,3874
4041,3878
4042,3869
4043,3880
4044,3881
4045,3881
4046,3886
4047,3886
4048,3874
4049,3886
4050,3886
4051,3884
4052,3877
4053,3879
4054,3869
4055,3869
4056,3872
4057,3877
4058,3866
4059,3866
4060,3884
4061,3879
4062,3879
4063,3875
4064,3875
4065,3872
4066,3875
4067,3876
4068,3871
4069,3871
4070,3881
4071,3873
4072,3878
4073,3875
4074,3875
4075,3876
4076,3880
4077,3879
4078,3889
4079,3889
4080,3882
4081,3887
4082,3869
4083,3885
4084,3885
4085,3892
4086,3878
4087,3885
4088,3884
4089,3884
4090,3885
4091,3874
4092,3883
4093,3880
4094,3880
4095,3883
4096,3902
4097,3880
4098,3886
4099,3886
4100,3889
4101,3884
4102,3888
4103,3888
4104,3885
4105,3889
4106,3897
4107,3894
4108,3894
4109,3889
4110,3877
4111,3882
4112,3890
4113,3890
4114,3887
4115,3892
4116,3881
4117,3896
4118,3896
4119,3894
4120,3893
4121,3900
4122,3887
4123,3887
4124,3897
4125,3897
4126,3897
4127,3893
4128,3893
4129,3901
4130,3907
4131,3903
4132,3890
4133,3890
4134,3901
4135,3896
4136,3905
4137,3898
4138,3898
4139,3904
4140,3901
4141,3916
4142,3914
4143,3914
4144,3892
4145,3907
4146,3899
4147,3899
4148,3911
4149,3905
4150,3909
4151,3908
4152,3908
4153,3906
4154,3904
4155,3916
4156,3908
4157,3908
4158,3909
4159,3907
4160,3917
4161,3914
4162,3914
4163,3936
4164,3913
4165,3913
4166,3909
4167,3909
4168,3917
4169,3911
4170,3912
4171,3918
4172,3918
4173,3926
4174,3911
4175,3916
4176,3923
4177,3923
4178,3923
4179,3919
4180,3920
4181,3924
4182,3924
4183,3914
4184,3921
4185,3925
4186,3923
4187,3923
4188,3910
4189,3932
4190,3929
4191,3929
4192,3937
4193,3926
4194,3928
4195,3929
4196,3929
4197,3930
4198,3925
4199,3923
4200,3923
4201,3923
4202,3926
4203,3917
4204,3922
4205,3915
4206,3915
4207,3915
4208,3921
4209,3914
4210,3912
4211,3912
4212,3911
4213,3909
4214,3899
4215,3905
4216,3905
4217,3900
4218,3886
4219,3893
4220,3892
4221,3892
4222,3890
4223,3882
4224,3885
4225,3882
4226,3882
4227,3889
4228,3881
4229,3871
4230,3872
4231,3872
4232,3874
4233,3872
4234,3862
4235,3862
4236,3868
4237,3874
4238,3864
4239,3863
4240,3863
4241,3861
4242,3870
4243,3856
4244,3843
4245,3843
4246,3841
4247,3847
4248,3844
4249,3843
4250,3843
4251,3835
4252,3826
4253,3847
4254,3829
4255,3829
4256,3834
4257,3832
4258,3838
4259,3837
4260,3837
4261,3831
4262,3835
4263,3833
4264,3826
4265,3826
4266,3834
4267,3833
4268,3826
4269,3833
4270,3833
4271,3834
4272,3827
4273,3824
4274,3824
4275,3824
4276,3821
4277,3829
4278,3824
4279,3824
4280,3817
4281,3829
4282,3821
4283,3814
4284,3814
4285,3819
4286,3821
4287,3821
4288,3827
4289,3827
4290,3830
4291,3819
4292,3825
4293,3828
4294,3828
4295,3820
4296,3820
4297,3822
4298,3819
4299,3819
4300,3820
4301,3819
4302,3824
4303,3815
4304,3815
4305,3823
4306,3815
4307,3819
4308,3827
4309,3827
4310,3816
4311,3817
4312,3816
4313,3824
4314,3824
4315,3818
4316,3822
4317,3819
4318,3809
4319,3809
4320,3816
4321,3824
4322,3816
4323,3816
4324,3816
4325,3799
4326,3806
4327,3813
4328,3813
4329,3817
4330,3814
4331,3814
4332,3810
4333,3810
4334,3807
4335,3810
4336,3812
4337,3811
4338,3811
4339,3804
4340,3813
4341,3817
4342,3818
4343,3818
4344,3807
4345,3808
4346,3813
4347,3805
4348,3805
4349,3811
4350,3811
4351,3808
4352,3811
4353,3811
4354,3811
4355,3809
4356,3809
4357,3801
4358,3801
4359,3809
4360,3807
4361,3800
4362,3804
4363,3804
4364,3808
4365,3805
4366,3795
4367,3795
4368,3795
4369,3801
4370,3809
4371,3804
4372,3804
4373,3798
4374,3779
4375,3809
4376,3799
4377,3799
4378,3805
4379,3796
4380,3803
4381,3802
4382,3802
4383,3802
4384,3807
4385,3803
4386,3801
4387,3801
4388,3814
4389,3808
4390,3806
4391,3806
4392,3806
4393,3803
4394,3806
4395,3817
4396,3806
4397,3806
4398,3807
4399,3803
4400,3798
4401,3808
4402,3808
4403,3805
4404,3810
4405,3806
4406,3803
4407,3803
4408,3806
4409,3814
4410,3805
4411,3805
4412,3811
4413,3805
4414,3816
4415,3813
4416,3813
4417,3811
4418,3810
4419,3816
4420,3822
4421,3822
4422,3816
4423,3820
4424,3813
4425,3832
4426,3832
4427,3819
4428,3829
4429,3820
4430,3819
4431,3819
4432,3824
4433,3823
4434,3826
4435,3825
4436,3825
4437,3820
4438,3814
4439,3827
4440,3827
4441,3827
4442,3833
4443,3825
4444,3827
4445,3827
4446,3827
4447,3834
4448,3835
4449,3831
4450,3831
4451,3831
4452,3837
4453,3842
4454,3836
4455,3836
4456,3836
4457,3840
4458,3844
4459,3838
4460,3838
4461,3838
4462,3835
4463,3833
4464,3846
4465,3846
4466,3842
4467,3836
4468,3849
4469,3842
4470,3842
4471,3848
4472,3845
4473,3848
4474,3850
4475,3850
4476,3843
4477,3851
4478,3850
4479,3825
4480,3825
4481,3848
4482,3850
4483,3852
4484,3850
4485,3850
4486,3854
4487,3856
4488,3856
4489,3862
4490,3862
4491,3855
4492,3861
4493,3869
4494,3862
4495,3862
4496,3859
4497,3860
4498,3861
4499,3861
4500,3864
4501,3861
4502,3868
4503,3867
4504,3867
4505,3862
4506,3862
4507,3880
4508,3870
4509,3870
4510,3863
4511,3865
4512,3870
4513,3874
4514,3874
4515,3868
4516,3865
4517,3867
4518,3865
4519,3865
4520,3865
4521,3866
4522,3861
4523,3859
4524,3859
4525,3865
4526,3859
4527,3852
4528,3843
4529,3843
4530,3859
4531,3852
4532,3844
4533,3844
4534,3844
4535,3848
4536,3845
4537,3830
4538,3839
4539,3839
4540,3847
4541,3828
4542,3829
4543,3829
4544,3826
4545,3824
4546,3818
4547,3826
4548,3826
4549,3815
4550,3821
4551,3816
4552,3811
4553,3811
4554,3817
4555,3808
4556,3811
4557,3813
4558,3813
4559,3802
4560,3805
4561,3802
4562,3799
4563,3799
4564,3800
4565,3801
4566,3796
4567,3797
4568,3797
4569,3800
4570,3797
4571,3788
4572,3789
4573,3789
4574,3802
4575,3789
4576,3786
4577,3790
4578,3790
4579,3789
4580,3791
4581,3781
4582,3787
4583,3787
4584,3779
4585,3775
4586,3772
4587,3772
4588,3774
4589,3781
4590,3784
4591,3777
4592,3777
4593,3773
4594,3765
4595,3772
4596,3775
4597,3775
4598,3757
4599,3769
4600,3786
4601,3773
4602,3773
4603,3771
4604,3773
4605,3775
4606,3768
4607,3768
4608,3754
4609,3767
4610,3776
4611,3782
4612,3782
4613,3778
4614,3777
4615,3754
4616,3755
4617,3755
4618,3768
4619,3757
4620,3760
4621,3768
4622,3768
4623,3765
4624,3772
4625,3754
4626,3765
4627,3765
4628,3777
4629,3761
4630,3773
4631,3773
4632,3769
4633,3767
4634,3783
4635,3769
4636,3769
4637,3763
4638,3772
4639,3759
4640,3769
4641,3769
4642,3769
4643,3762
4644,3769
4645,3767
4646,3767
4647,3773
4648,3779
4649,3773
4650,3760
4651,3760
4652,3775
4653,3768
4654,3770
4655,3768
4656,3768
4657,3772
4658,3770
4659,3759
4660,3772
4661,3772
4662,3771
4663,3763
4664,3761
4665,3766
4666,3766
4667,3771
4668,3768
4669,3758
4670,3760
4671,3760
4672,3765
4673,3769
4674,3759
4675,3759
4676,3763
4677,3756
4678,3772
4679,3781
4680,3781
4681,3765
4682,3761
4683,3768
4684,3771
4685,3771
4686,3765
4687,3763
4688,3763
4689,3765
4690,3765
4691,3779
4692,3746
4693,3768
4694,3773
4695,3773
4696,3762
4697,3764
4698,3764
4699,3755
4700,3755
4701,3766
4702,3770
4703,3769
4704,3767
4705,3767
4706,3769
4707,3766
4708,3771
4709,3766
4710,3766
4711,3777
4712,3776
4713,3773
4714,3770
4715,3770
4716,3773
4717,3774
4718,3775
4719,3775
4720,3779
4721,3770
4722,3775
4723,3778
4724,3778
4725,3786
4726,3778
4727,3783
4728,3778
4729,3778
4730,3769
4731,3787
4732,3778
4733,3786
4734,3786
4735,3790
4736,3781
4737,3783
4738,3787
4739,3787
4740,3792
4741,3784
4742,3780
4743,3789
4744,3789
4745,3792
4746,3798
4747,3785
4748,3793
4749,3793
4750,3788
4751,3793
4752,3801
4753,3790
4754,3790
4755,3791
4756,3798
4757,3792
4758,3792
4759,3803
4760,3795
4761,3795
4762,3795
4763,3795
4764,3789
4765,3788
4766,3803
4767,3794
4768,3794
4769,3795
4770,3801
4771,3788
4772,3797
4773,3797
4774,3797
4775,3797
4776,3802
4777,3788
4778,3788
4779,3792
4780,3794
4781,3807
4782,3802
4783,3802
4784,3797
4785,3798
4786,3806
4787,3801
4788,3801
4789,3802
4790,3802
4791,3791
4792,3802
4793,3802
4794,3802
4795,3796
4796,3805
4797,3802
4798,3802
4799,3800
4800,3808
4801,3801
4802,3801
4803,3807
4804,3800
4805,3818
4806,3801
4807,3801
4808,3814
4809,3806
4810,3806
4811,3806
4812,3806
4813,3810
4814,3805
4815,3804
4816,3806
4817,3806
4818,3811
4819,3819
4820,3804
4821,3801
4822,3801
4823,3800
4824,3798
4825,3815
4826,3806
4827,3806
4828,3795
4829,3798
4830,3790
4831,3795
4832,3795
4833,3793
4834,3789
4835,3788
4836,3789
4837,3789
4838,3793
4839,3780
4840,3783
4841,3780
4842,3780
4843,3780
4844,3772
4845,3772
4846,3772
4847,3767
4848,3780
4849,3779
4850,3767
4851,3767
4852,3764
4853,3769
4854,3768
4855,3756
4856,3756
4857,3760
4858,3754
4859,3754
4860,3742
4861,3742
4862,3753
4863,3749
4864,3744
4865,3734
4866,3734
4867,3751
4868,3749
4869,3731
4870,3741
4871,3741
4872,3745
4873,3742
4874,3747
4875,3736
4876,3736
4877,3737
4878,3743
4879,3734
4880,3742
4881,3742
4882,3733
4883,3744
4884,3737
4885,3740
4886,3740
4887,3738
4888,3747
4889,3736
4890,3736
4891,3731
4892,3732
4893,3733
4894,3732
4895,3732
4896,3729
4897,3724
4898,3739
4899,3739
4900,3739
4901,3736
4902,3726
4903,3731
4904,3736
4905,3736
4906,3729
4907,3717
4908,3722
4909,3737
4910,3737
4911,3738
4912,3729
4913,3728
4914,3734
4915,3734
4916,3727
4917,3727
4918,3723
4919,3728
4920,3728
4921,3728
4922,3729
4923,3731
4924,3725
4925,3725
4926,3730
4927,3726
4928,3742
4929,3725
4930,3725
4931,3717
4932,3724
4933,3724
4934,3724
4935,3727
4936,3724
4937,3734
4938,3729
4939,3729
4940,3733
4941,3723
4942,3743
4943,3741
4944,3741
4945,3727
4946,3730
4947,3736
4948,3733
4949,3733
4950,3731
4951,3735
4952,3737
4953,3741
4954,3741
4955,3732
4956,3743
4957,3741
4958,3727
4959,3727
4960,3739
4961,3735
4962,3742
4963,3747
4964,3747
4965,3743
4966,3737
4967,3747
4968,3741
4969,3741
4970,3736
4971,3749
4972,3739
4973,3739
4974,3739
4975,3738
4976,3745
4977,3741
4978,3741
4979,3739
4980,3741
4981,3748
4982,3743
4983,3743
4984,3736
4985,3735
4986,3738
4987,3744
4988,3744
4989,3748
4990,3742
4991,3744
4992,3741
4993,3741
4994,3745
4995,3747
4996,3741
4997,3741
4998,3741
4999,3743
5000,3739
5001,3749
5002,3747
5003,3747
5004,3750
5005,3756
5006,3757
5007,3757
5008,3757
5009,3750
5010,3752
5011,3746
5012,3757
5013,3757
5014,3755
5015,3761
5016,3757
5017,3750
5018,3750
5019,3759
5020,3750
5021,3753
5022,3753
5023,3751
5024,3754
5025,3758
5026,3754
5027,3754
5028,3756
5029,3757
5030,3753
5031,3751
5032,3751
5033,3765
5034,3751
5035,3755
5036,3747
5037,3747
5038,3766
5039,3752
5040,3760
5041,3757
5042,3757
5043,3755
5044,3761
5045,3752
5046,3750
5047,3750
5048,3756
5049,3762
5050,3754
5051,3760
5052,3760
5053,3754
5054,3755
5055,3758
5056,3771
5057,3771
5058,3754
5059,3767
5060,3764
5061,3754
5062,3754
5063,3747
5064,3762
5065,3759
5066,3759
5067,3760
5068,3758
5069,3764
5070,3762
5071,3762
5072,3756
5073,3759
5074,3768
5075,3760
5076,3760
5077,3759
5078,3767
5079,3765
5080,3759
5081,3759
5082,3759
5083,3760
5084,3761
5085,3762
5086,3762
5087,3756
5088,3754
5089,3763
5090,3749
5091,3749
5092,3752
5093,3757
5094,3754
5095,3760
5096,3760
5097,3747
5098,3760
5099,3750
5100,3761
5101,3761
5102,3763
5103,3760
5104,3756
5105,3756
5106,3756
5107,3755
5108,3751
5109,3758
5110,3758
5111,3751
5112,3750
5113,3757
5114,3758
5115,3758
5116,3758
5117,3761
5118,3750
5119,3757
5120,3757
5121,3764
5122,3758
5123,3760
5124,3762
5125,3762
5126,3767
5127,3766
5128,3771
5129,3760
5130,3760
5131,3756
5132,3754
5133,3752
5134,3759
5135,3759
5136,3751
5137,3762
5138,3757
5139,3758
5140,3758
5141,3749
5142,3755
5143,3750
5144,3752
5145,3752
5146,3744
5147,3748
5148,3749
5149,3748
5150,3748
5151,3743
5152,3746
5153,3743
5154,3743
5155,3759
5156,3741
5157,3740
5158,3732
5159,3732
5160,3730
5161,3733
5162,3732
5163,3734
5164,3734
5165,3734
5166,3726
5167,3734
5168,3731
5169,3731
5170,3733
5171,3728
5172,3726
5173,3725
5174,3725
5175,3727
5176,3731
5177,3724
5178,3720
5179,3720
5180,3726
5181,3721
5182,3722
5183,3721
5184,3721
5185,3724
5186,3723
5187,3724
5188,3706
5189,3706
5190,3724
5191,3715
5192,3723
5193,3723
5194,3721
5195,3717
5196,3721
5197,3710
5198,3710
5199,3724
5200,3713
5201,3715
5202,3713
5203,3713
5204,3711
5205,3708
5206,3713
5207,3715
5208,3715
5209,3702
5210,3710
5211,3717
5212,3711
5213,3711
5214,3717
5215,3719
5216,3712
5217,3724
5218,3724
5219,3714
5220,3728
5221,3721
5222,3704
5223,3704
5224,3719
5225,3721
5226,3727
5227,3713
5228,3713
5229,3718
5230,3723
5231,3721
5232,3723
5233,3723
5234,3730
5235,3723
5236,3715
5237,3715
5238,3726
5239,3715
5240,3725
5241,3725
5242,3725
5243,3731
5244,3720
5245,3727
5246,3709
5247,3709
5248,3709
5249,3714
5250,3725
5251,3715
5252,3715
5253,3718
5254,3725
5255,3720
5256,3725
5257,3725
5258,3711
5259,3723
5260,3715
5261,3708
5262,3708
5263,3729
5264,3721
5265,3730
5266,3714
5267,3714
5268,3723
5269,3715
5270,3732
5271,3720
5272,3720
5273,3719
5274,3722
5275,3717
5276,3722
5277,3722
5278,3725
5279,3730
5280,3713
5281,3713
5282,3716
5283,3716
5284,3725
5285,3724
5286,3724
5287,3716
5288,3723
5289,3727
5290,3725
5291,3725
5292,3719
5293,3716
5294,3721
5295,3721
5296,3721
5297,3725
5298,3721
5299,3722
5300,3732
5301,3732
5302,3723
5303,3721
5304,3724
5305,3734
5306,3734
5307,3726
5308,3724
5309,3723
5310,3735
5311,3735
5312,3731
5313,3721
5314,3726
5315,3723
5316,3723
5317,3723
5318,3723
5319,3730
5320,3736
5321,3736
5322,3724
5323,3735
5324,3737
5325,3737
5326,3732
5327,3728
5328,3734
5329,3734
5330,3734
5331,3734
5332,3740
5333,3739
5334,3737
5335,3737
5336,3725
5337,3728
5338,3729
5339,3742
5340,3742
5341,3735
5342,3742
5343,3743
5344,3734
5345,3734
5346,3748
5347,3730
5348,3741
5349,3738
5350,3738
5351,3740
5352,3734
5353,3750
5354,3728
5355,3728
5356,3742
5357,3744
5358,3749
5359,3741
5360,3741
5361,3747
5362,3753
5363,3755
5364,3752
5365,3752
5366,3750
5367,3764
5368,3754
5369,3754
5370,3757
5371,3757
5372,3755
5373,3753
5374,3753
5375,3753
5376,3763
5377,3765
5378,3761
5379,3761
5380,3755
5381,3758
5382,3761
5383,3763
5384,3763
5385,3754
5386,3761
5387,3762
5388,3766
5389,3766
5390,3766
5391,3767
5392,3772
5393,3761
5394,3761
5395,3773
5396,3769
5397,3767
5398,3768
5399,3768
5400,3764
5401,3772
5402,3772
5403,3772
5404,3772
5405,3772
5406,3770
5407,3781
5408,3787
5409,3787
5410,3778
5411,3779
5412,3770
5413,3770
5414,3772
5415,3775
5416,3784
5417,3777
5418,3777
5419,3775
5420,3778
5421,3776
5422,3778
5423,3778
5424,3782
5425,3778
5426,3787
5427,3784
5428,3784
5429,3781
5430,3788
5431,3784
5432,3783
5433,3783
5434,3784
5435,3786
5436,3792
5437,3790
5438,3790
5439,3784
5440,3792
5441,3788
5442,3792
5443,3792
5444,3789
5445,3801
5446,3794
5447,3795
5448,3795
5449,3792
5450,3802
5451,3794
5452,3790
5453,3790
5454,3794
5455,3788
5456,3798
5457,3798
5458,3790
5459,3794
5460,3803
5461,3792
5462,3792
5463,3796
5464,3797
5465,3784
5466,3794
5467,3794
5468,3789
5469,3783
5470,3791
5471,3785
5472,3785
5473,3794
5474,3806
5475,3802
5476,3798
5477,3798
5478,3787
5479,3790
5480,3790
5481,3792
5482,3792
5483,3792
5484,3795
5485,3786
5486,3793
5487,3793
5488,3778
5489,3782
5490,3797
5491,3787
5492,3787
5493,3786
5494,3798
5495,3787
5496,3801
5497,3801
5498,3779
5499,3796
5500,3780
5501,3780
5502,3783
5503,3791
5504,3795
5505,3792
5506,3792
5507,3794
5508,3789
5509,3792
5510,3792
5511,3792
5512,3786
5513,3792
5514,3794
5515,3790
5516,3790
5517,3795
5518,3793
5519,3794
5520,3800
5521,3800
5522,3810
5523,3799
5524,3803
5525,3795
5526,3795
5527,3814
5528,3808
5529,3803
5530,3796
5531,3796
5532,3801
5533,3804
5534,3792
5535,3801
5536,3801
5537,3804
5538,3806
5539,3810
5540,3812
5541,3812
5542,3810
5543,3812
5544,3810
5545,3810
5546,3801
5547,3800
5548,3809
5549,3808
5550,3808
5551,3796
5552,3805
5553,3802
5554,3825
5555,3825
5556,3802
5557,3811
5558,3807
5559,3813
5560,3813
5561,3816
5562,3805
5563,3817
5564,3821
5565,3821
5566,3813
5567,3805
5568,3808
5569,3818
5570,3818
5571,3811
5572,3819
5573,3821
5574,3817
5575,3817
5576,3815
5577,3823
5578,3813
5579,3809
5580,3809
5581,3833
5582,3817
5583,3813
5584,3818
5585,3818
5586,3826
5587,3824
5588,3825
5589,3825
5590,3823
5591,3812
5592,3831
5593,3822
5594,3822
5595,3815
5596,3819
5597,3836
5598,3826
5599,3826
5600,3836
5601,3810
5602,3828
5603,3826
5604,3826
5605,3820
5606,3812
5607,3830
5608,3822
5609,3822
5610,3826
5611,3820
5612,3825
5613,3822
5614,3822
5615,3825
5616,3830
5617,3825
5618,3835
5619,3835
5620,3824
5621,3834
5622,3832
5623,3828
5624,3828
5625,3823
5626,3837
5627,3830
5628,3832
5629,3832
5630,3831
5631,3828
5632,3831
5633,3831
5634,3828
5635,3830
5636,3823
5637,3828
5638,3828
5639,3832
5640,3815
5641,3830
5642,3825
5643,3825
5644,3830
5645,3823
5646,3816
5647,3835
5648,3835
5649,3837
5650,3828
5651,3843
5652,3837
5653,3837
5654,3827
5655,3824
5656,3840
5657,3833
5658,3833
5659,3842
5660,3845
5661,3837
5662,3819
5663,3819
5664,3831
5665,3835
5666,3832
5667,3834
5668,3834
5669,3845
5670,3837
5671,3830
5672,3837
5673,3837
5674,3836
5675,3846
5676,3844
5677,3844
5678,3837
5679,3841
5680,3853
5681,3844
5682,3844
5683,3845
5684,3835
5685,3843
5686,3843
5687,3843
5688,3839
5689,3832
5690,3855
5691,3846
5692,3846
5693,3846
5694,3842
5695,3839
5696,3845
5697,3845
5698,3841
5699,3845
5700,3853
5701,3830
5702,3830
5703,3842
5704,3846
5705,3842
5706,3846
5707,3846
5708,3846
5709,3844
5710,3846
5711,3845
5712,3845
5713,3834
5714,3847
5715,3842
5716,3846
5717,3846
5718,3839
5719,3850
5720,3853
5721,3853
5722,3845
5723,3852
5724,3843
5725,3844
5726,3844
5727,3847
5728,3842
5729,3849
5730,3832
5731,3832
5732,3849
5733,3841
5734,3854
5735,3849
5736,3849
5737,3850
5738,3848
5739,3860
5740,3851
5741,3851
5742,3850
5743,3863
5744,3858
5745,3860
5746,3860
5747,3853
5748,3866
5749,3843
5750,3855
5751,3855
5752,3852
5753,3867
5754,3857
5755,3860
5756,3860
5757,3861
5758,3856
5759,3867
5760,3861
5761,3861
5762,3859
5763,3873
5764,3860
5765,3860
5766,3858
5767,3863
5768,3862
5769,3864
5770,3864
5771,3857
5772,3858
5773,3853
5774,3858
5775,3858
5776,3857
5777,3849
5778,3861
5779,3859
5780,3859
5781,3853
5782,3846
5783,3850
5784,3853
5785,3853
5786,3843
5787,3837
5788,3858
5789,3844
5790,3844
5791,3830
5792,3838
5793,3840
5794,3842
5795,3842
5796,3839
5797,3841
5798,3832
5799,3841
5800,3841
5801,3840
5802,3838
5803,3829
5804,3837
5805,3837
5806,3825
5807,3843
5808,3840
5809,3840
5810,3837
5811,3813
5812,3838
5813,3836
5814,3836
5815,3834
5816,3823
5817,3835
5818,3835
5819,3835
5820,3837
5821,3831
5822,3832
5823,3831
5824,3831
5825,3831
5826,3832
5827,3837
5828,3842
5829,3842
5830,3839
5831,3832
5832,3830
5833,3837
5834,3837
5835,3829
5836,3840
5837,3826
5838,3836
5839,3836
5840,3832
5841,3832
5842,3836
5843,3834
5844,3834
5845,3839
5846,3855
5847,3839
5848,3832
5849,3832
5850,3839
5851,3846
5852,3841
5853,3841
5854,3839
5855,3841
5856,3843
5857,3841
5858,3841
5859,3839
5860,3838
5861,3848
5862,3851
5863,3851
5864,3843
5865,3843
5866,3848
5867,3843
5868,3843
5869,3850
5870,3847
5871,3850
5872,3852
5873,3852
5874,3852
5875,3847
5876,3853
5877,3861
5878,3861
5879,3850
5880,3858
5881,3854
5882,3852
5883,3852
5884,3867
5885,3861
5886,3849
5887,3863
5888,3863
5889,3855
5890,3866
5891,3864
5892,3850
5893,3850
5894,3869
5895,3870
5896,3863
5897,3863
5898,3861
5899,3860
5900,3867
5901,3868
5902,3868
5903,3870
5904,3860
5905,3879
5906,3869
5907,3869
5908,3873
5909,3860
5910,3863
5911,3871
5912,3871
5913,3889
5914,3864
5915,3871
5916,3868
5917,3868
5918,3873
5919,3864
5920,3857
5921,3861
5922,3861
5923,3870
5924,3876
5925,3890
5926,3873
5927,3873
5928,3868
5929,3878
5930,3866
5931,3860
5932,3860
5933,3882
5934,3877
5935,3882
5936,3872
5937,3872
5938,3858
5939,3881
5940,3871
5941,3871
5942,3867
5943,3872
5944,3882
5945,3878
5946,3878
5947,3868
5948,3872
5949,3885
5950,3875
5951,3875
5952,3877
5953,3870
5954,3885
5955,3881
5956,3881
5957,3884
5958,3875
5959,3885
5960,3884
5961,3884
5962,3879
5963,3874
5964,3878
5965,3877
5966,3877
5967,3874
5968,3878
5969,3880
5970,3878
5971,3878
5972,3885
5973,3884
5974,3882
5975,3880
5976,3880
5977,3881
5978,3882
5979,3886
5980,3884
5981,3884
5982,3890
5983,3886
5984,3881
5985,3881
5986,3892
5987,3886
5988,3883
5989,3890
5990,3890
5991,3887
5992,3903
5993,3907
5994,3890
5995,3890
5996,3889
5997,3889
5998,3894
5999,3894
6000,3894
6001,3889
6002,3890
6003,3888
6004,3886
6005,3886
6006,3895
6007,3905
6008,3895
6009,3896
6010,3896
6011,3896
6012,3896
6013,3893
6014,3898
6015,3898
6016,3907
6017,3893
6018,3892
6019,3899
6020,3899
6021,3904
6022,3893
6023,3902
6024,3896
6025,3896
6026,3908
6027,3890
6028,3892
6029,3892
6030,3899
6031,3907
6032,3903
6033,3908
6034,3908
6035,3905
6036,3887
6037,3902
6038,3899
6039,3899
6040,3901
6041,3897
6042,3905
6043,3911
6044,3911
6045,3899
6046,3912
6047,3905
6048,3918
6049,3918
6050,3907
6051,3904
6052,3908
6053,3908
6054,3908
6055,3903
6056,3914
6057,3911
6058,3920
6059,3920
6060,3912
6061,3914
6062,3913
6063,3913
6064,3913
6065,3914
6066,3913
6067,3916
6068,3910
6069,3910
6070,3908
6071,3922
6072,3912
6073,3912
6074,3906
6075,3912
6076,3916
6077,3915
6078,3915
6079,3912
6080,3910
6081,3910
6082,3920
6083,3920
6084,3899
6085,3908
6086,3915
6087,3911
6088,3911
6089,3913
6090,3902
6091,3905
6092,3898
6093,3898
6094,3904
6095,3899
6096,3902
6097,3901
6098,3901
6099,3901
6100,3896
6101,3890
6102,3889
6103,3889
6104,3894
6105,3895
6106,3890
6107,3883
6108,3883
6109,3898
6110,3888
6111,3889
6112,3893
6113,3893
6114,3887
6115,3883
6116,3873
6117,3873
6118,3875
6119,3874
6120,3890
6121,3877
6122,3877
6123,3868
6124,3879
6125,3872
6126,3874
6127,3874
6128,3871
6129,3867
6130,3872
6131,3864
6132,3864
6133,3873
6134,3868
6135,3875
6136,3868
6137,3868
6138,3884
6139,3844
6140,3870
6141,3871
6142,3871
6143,3867
6144,3874
6145,3856
6146,3857
6147,3857
6148,3861
6149,3863
6150,3862
6151,3871
6152,3871
6153,3856
6154,3867
6155,3860
6156,3863
6157,3863
6158,3864
6159,3866
6160,3861
6161,3861
6162,3862
6163,3842
6164,3862
6165,3849
6166,3849
6167,3859
6168,3863
6169,3854
6170,3860
6171,3860
6172,3858
6173,3853
6174,3867
6175,3853
6176,3853
6177,3849
6178,3861
6179,3865
6180,3853
6181,3853
6182,3853
6183,3853
6184,3858
6185,3853
6186,3853
6187,3851
6188,3862
6189,3851
6190,3844
6191,3844
6192,3842
6193,3852
6194,3850
6195,3857
6196,3857
6197,3840
6198,3853
6199,3849
6200,3848
6201,3848
6202,3851
6203,3854
6204,3858
6205,3858
6206,3850
6207,3854
6208,3851
6209,3849
6210,3849
6211,3858
6212,3846
6213,3859
6214,3843
6215,3843
6216,3845
6217,3862
6218,3867
6219,3853
6220,3853
6221,3851
6222,3844
6223,3858
6224,3857
6225,3857
6226,3852
6227,3854
6228,3860
6229,3846
6230,3846
6231,3848
6232,3854
6233,3852
6234,3849
6235,3849
6236,3847
6237,3850
6238,3855
6239,3851
6240,3851
6241,3850
6242,3854
6243,3852
6244,3849
6245,3849
6246,3854
6247,3856
6248,3849
6249,3849
6250,3843
6251,3852
6252,3855
6253,3854
6254,3854
6255,3853
6256,3852
6257,3850
6258,3849
6259,3849
6260,3862
6261,3853
6262,3855
6263,3852
6264,3852
6265,3845
6266,3841
6267,3846
6268,3855
6269,3855
6270,3850
6271,3847
6272,3862
6273,3862
6274,3862
6275,3841
6276,3859
6277,3849
6278,3856
6279,3856
6280,3850
6281,3845
6282,3853
6283,3854
6284,3854
6285,3854
6286,3870
6287,3852
6288,3853
6289,3853
6290,3853
6291,3855
6292,3854
6293,3854
6294,3852
6295,3855
6296,3854
6297,3858
6298,3858
6299,3859
6300,3848
6301,3866
6302,3859
6303,3859
6304,3860
6305,3859
6306,3858
6307,3858
6308,3858
6309,3859
6310,3868
6311,3865
6312,3862
6313,3862
6314,3864
6315,3862
6316,3866
6317,3858
6318,3858
6319,3859
6320,3868
6321,3866
6322,3869
6323,3869
6324,3862
6325,3874
6326,3873
6327,3869
6328,3869
6329,3883
6330,3872
6331,3875
6332,3876
6333,3876
6334,3871
6335,3873
6336,3874
6337,3874
6338,3878
6339,3881
6340,3876
6341,3877
6342,3877
6343,3878
6344,3880
6345,3888
6346,3881
6347,3881
6348,3876
6349,3890
6350,3890
6351,3891
6352,3891
6353,3890
6354,3886
6355,3908
6356,3889
6357,3889
6358,3889
6359,3895
6360,3899
6361,3895
6362,3895
6363,3909
6364,3899
6365,3903
6366,3902
6367,3902
6368,3909
6369,3901
6370,3901
6371,3913
6372,3913
6373,3904
6374,3904
6375,3903
6376,3908
6377,3908
6378,3903
6379,3910
6380,3918
6381,3918
6382,3915
6383,3913
6384,3915
6385,3925
6386,3925
6387,3908
6388,3927
6389,3920
6390,3912
6391,3912
6392,3918
6393,3913
6394,3927
6395,3908
6396,3908
6397,3913
6398,3912
6399,3927
6400,3933
6401,3933
6402,3922
6403,3923
6404,3922
6405,3926
6406,3926
6407,3928
6408,3929
6409,3933
6410,3927
6411,3927
6412,3929
6413,3923
6414,3927
6415,3929
6416,3929
6417,3926
6418,3929
6419,3927
6420,3920
6421,3920
6422,3914
6423,3929
6424,3916
6425,3916
6426,3919
6427,3924
6428,3924
6429,3919
6430,3919
6431,3918
6432,3918
6433,3911
6434,3909
6435,3909
6436,3913
6437,3909
6438,3915
6439,3903
6440,3903
6441,3909
6442,3921
6443,3905
6444,3909
6445,3909
6446,3904
6447,3891
6448,3895
6449,3900
6450,3900
6451,3896
6452,3898
6453,3899
6454,3885
6455,3885
6456,3891
6457,3891
6458,3882
6459,3886
6460,3886
6461,3890
6462,3900
6463,3889
6464,3891
6465,3891
6466,3897
6467,3895
6468,3907
6469,3907
6470,3895
6471,3896
6472,3896
6473,3880
6474,3880
6475,3884
6476,3877
6477,3889
6478,3891
6479,3891
6480,3893
6481,3898
6482,3904
6483,3891
6484,3891
6485,3893
6486,3897
6487,3891
6488,3899
6489,3899
6490,3895
6491,3890
6492,3887
6493,3890
6494,3890
6495,3897
6496,3901
6497,3895
6498,3895
6499,3895
6500,3897
6501,3884
6502,3901
6503,3889
6504,3889
6505,3899
6506,3896
6507,3895
6508,3912
6509,3912
6510,3895
6511,3890
6512,3897
6513,3897
6514,3887
6515,3891
6516,3896
6517,3901
6518,3901
6519,3902
6520,3891
6521,3896
6522,3887
6523,3887
6524,3899
6525,3900
6526,3899
6527,3903
6528,3903
6529,3889
6530,3902
6531,3904
6532,3901
6533,3901
6534,3901
6535,3906
6536,3906
6537,3897
6538,3897
6539,3900
6540,3918
6541,3910
6542,3904
6543,3904
6544,3893
6545,3910
6546,3902
6547,3898
6548,3898
6549,3907
6550,3905
6551,3911
6552,3909
6553,3909
6554,3913
6555,3906
6556,3910
6557,3910
6558,3910
6559,3912
6560,3913
6561,3915
6562,3915
6563,3908
6564,3906
6565,3914
6566,3911
6567,3911
6568,3908
6569,3906
6570,3916
6571,3907
6572,3907
6573,3915
6574,3912
6575,3929
6576,3911
6577,3911
6578,3921
6579,3914
6580,3914
6581,3910
6582,3910
6583,3909
6584,3927
6585,3913
6586,3921
6587,3921
6588,3908
6589,3911
6590,3921
6591,3919
6592,3919
6593,3918
6594,3925
6595,3918
6596,3926
6597,3926
6598,3929
6599,3926
6600,3908
6601,3908
6602,3918
6603,3922
6604,3918
6605,3924
6606,3924
6607,3926
6608,3923
6609,3924
6610,3933
6611,3933
6612,3926
6613,3926
6614,3930
6615,3938
6616,3938
6617,3926
6618,3937
6619,3931
6620,3932
6621,3932
6622,3932
6623,3940
6624,3934
6625,3933
6626,3933
6627,3931
6628,3936
6629,3939
6630,3933
6631,3933
6632,3948
6633,3930
6634,3940
6635,3936
6636,3936
6637,3942
6638,3945
6639,3938
6640,3946
6641,3946
6642,3956
6643,3945
6644,3937
6645,3937
6646,3946
6647,3943
6648,3946
6649,3941
6650,3941
6651,3954
6652,3941
6653,3935
6654,3968
6655,3968
6656,3952
6657,3940
6658,3953
6659,3940
6660,3940
6661,3939
6662,3949
6663,3945
6664,3942
6665,3942
6666,3952
6667,3945
6668,3949
6669,3953
6670,3953
6671,3951
6672,3945
6673,3955
6674,3953
6675,3953
6676,3959
6677,3952
6678,3951
6679,3946
6680,3946
6681,3944
6682,3956
6683,3968
6684,3968
6685,3942
6686,3947
6687,3962
6688,3953
6689,3953
6690,3957
6691,3948
6692,3965
6693,3951
6694,3951
6695,3951
6696,3956
6697,3968
6698,3961
6699,3961
6700,3957
6701,3958
6702,3976
6703,3959
6704,3959
6705,3956
6706,3963
6707,3970
6708,3962
6709,3962
6710,3963
6711,3959
6712,3956
6713,3971
6714,3971
6715,3967
6716,3963
6717,3965
6718,3964
6719,3964
6720,3963
6721,3974
6722,3968
6723,3967
6724,3967
6725,3970
6726,3967
6727,3961
6728,3961
6729,3973
6730,3958
6731,3965
6732,3971
6733,3971
6734,3965
6735,3966
6736,3974
6737,3962
6738,3962
6739,3968
6740,3968
6741,3969
6742,3967
6743,3967
6744,3965
6745,3966
6746,3957
6747,3978
6748,3978
6749,3972
6750,3972
6751,3955
6752,3965
6753,3965
6754,3967
6755,3963
6756,3955
6757,3954
6758,3954
6759,3955
6760,3954
6761,3957
6762,3958
6763,3958
6764,3947
6765,3946
6766,3955
6767,3946
6768,3946
6769,3927
6770,3939
6771,3934
6772,3934
6773,3936
6774,3932
6775,3943
6776,3932
6777,3932
6778,3934
6779,3927
6780,3921
6781,3931
6782,3931
6783,3929
6784,3922
6785,3938
6786,3926
6787,3926
6788,3922
6789,3933
6790,3924
6791,3918
6792,3918
6793,3923
6794,3922
6795,3914
6796,3919
6797,3919
6798,3900
6799,3916
6800,3910
6801,3899
6802,3899
6803,3913
6804,3912
6805,3909
6806,3906
6807,3906
6808,3905
6809,3911
6810,3915
6811,3911
6812,3911
6813,3901
6814,3913
6815,3905
6816,3905
6817,3899
6818,3910
6819,3921
6820,3920
6821,3920
6822,3914
6823,3911
6824,3910
6825,3911
6826,3911
6827,3906
6828,3909
6829,3920
6830,3907
6831,3907
6832,3903
6833,3915
6834,3917
6835,3913
6836,3913
6837,3910
6838,3912
6839,3916
6840,3898
6841,3898
6842,3908
6843,3913
6844,3911
6845,3913
6846,3913
6847,3915
6848,3915
6849,3909
6850,3913
6851,3913
6852,3917
6853,3906
6854,3919
6855,3913
6856,3913
6857,3906
6858,3917
6859,3912
6860,3912
6861,3917
6862,3918
6863,3923
6864,3912
6865,3912
6866,3920
6867,3925
6868,3929
6869,3925
6870,3925
6871,3920
6872,3922
6873,3932
6874,3920
6875,3920
6876,3931
6877,3926
6878,3925
6879,3927
6880,3927
6881,3926
6882,3929
6883,3921
6884,3925
6885,3925
6886,3928
6887,3936
6888,3929
6889,3935
6890,3935
6891,3928
6892,3919
6893,3928
6894,3932
6895,3932
6896,3933
6897,3936
6898,3926
6899,3925
6900,3925
6901,3917
6902,3940
6903,3935
6904,3935
6905,3941
6906,3931
6907,3941
6908,3930
6909,3930
6910,3936
6911,3935
6912,3924
6913,3930
6914,3930
6915,3927
6916,3939
6917,3941
6918,3946
6919,3946
6920,3937
6921,3944
6922,3938
6923,3939
6924,3939
6925,3938
6926,3942
6927,3934
6928,3945
6929,3945
6930,3940
6931,3943
6932,3947
6933,3943
6934,3943
6935,3948
6936,3940
6937,3944
6938,3943
6939,3943
6940,3945
6941,3947
6942,3949
6943,3955
6944,3955
6945,3950
6946,3958
6947,3944
6948,3944
6949,3951
6950,3945
6951,3954
6952,3943
6953,3943
6954,3952
6955,3949
6956,3955
6957,3943
6958,3943
6959,3941
6960,3952
6961,3942
6962,3959
6963,3959
6964,3951
6965,3956
6966,3954
6967,3954
6968,3954
6969,3954
6970,3952
6971,3956
6972,3958
6973,3958
6974,3954
6975,3956
6976,3962
6977,3954
6978,3954
6979,3947
6980,3958
6981,3965
6982,3960
6983,3960
6984,3960
6985,3962
6986,3962
6987,3970
6988,3970
6989,3963
6990,3972
6991,3965
6992,3965
6993,3968
6994,3964
6995,3962
6996,3960
6997,3960
6998,3953
6999,3964
7000,3966
7001,3950
7002,3950
7003,3971
7004,3970
7005,3978
7006,3970
7007,3970
7008,3971
7009,3975
7010,3971
7011,3976
7012,3976
7013,3982
7014,3971
7015,3972
7016,3975
7017,3975
7018,3980
7019,3980
7020,3979
7021,3970
7022,3970
7023,3972
7024,3971
7025,3966
7026,3971
7027,3971
7028,3979
7029,3979
7030,3977
7031,3977
7032,3977
7033,3981
7034,3983
7035,3981
7036,3981
7037,3973
7038,3962
7039,3970
7040,3972
7041,3972
7042,3980
7043,3974
7044,3973
7045,3979
7046,3979
7047,3974
7048,3966
7049,3975
7050,3971
7051,3971
7052,3970
7053,3970
7054,3968
7055,3975
7056,3975
7057,3961
7058,3968
7059,3949
7060,3945
7061,3945
7062,3946
7063,3955
7064,3951
7065,3958
7066,3958
7067,3946
7068,3948
7069,3951
7070,3949
7071,3949
7072,3939
7073,3939
7074,3937
7075,3936
7076,3936
7077,3923
7078,3935
7079,3927
7080,3927
7081,3929
7082,3925
7083,3913
7084,3923
7085,3923
7086,3923
7087,3916
7088,3926
7089,3917
7090,3917
7091,3927
7092,3934
7093,3907
7094,3914
7095,3914
7096,3917
7097,3907
7098,3916
7099,3911
7100,3911
7101,3918
7102,3915
7103,3913
7104,3903
7105,3903
7106,3906
7107,3912
7108,3905
7109,3909
7110,3909
7111,3903
7112,3904
7113,3909
7114,3914
7115,3914
7116,3906
7117,3912
7118,3907
7119,3902
7120,3902
7121,3899
7122,3893
7123,3904
7124,3904
7125,3906
7126,3909
7127,3908
7128,3909
7129,3909
7130,3902
7131,3907
7132,3916
7133,3901
7134,3901
7135,3913
7136,3897
7137,3910
7138,3907
7139,3907
7140,3913
7141,3905
7142,3902
7143,3897
7144,3897
7145,3914
7146,3909
7147,3910
7148,3916
7149,3916
7150,3916
7151,3909
7152,3905
7153,3910
7154,3910
7155,3908
7156,3905
7157,3901
7158,3923
7159,3923
7160,3912
7161,3908
7162,3908
7163,3915
7164,3915
7165,3922
7166,3911
7167,3904
7168,3904
7169,3915
7170,3913
7171,3926
7172,3914
7173,3914
7174,3920
7175,3911
7176,3910
7177,3916
7178,3916
7179,3911
7180,3922
7181,3921
7182,3917
7183,3917
7184,3891
7185,3925
7186,3912
7187,3919
7188,3919
7189,3913
7190,3918
7191,3914
7192,3912
7193,3912
7194,3911
7195,3911
7196,3916
7197,3906
7198,3906
7199,3912
7200,3916
7201,3909
7202,3914
7203,3914
7204,3918
7205,3909
7206,3899
7207,3909
7208,3909
7209,3911
7210,3919
7211,3911
7212,3911
7213,3915
7214,3909
7215,3914
7216,3909
7217,3909
7218,3904
7219,3897
7220,3907
7221,3906
7222,3906
7223,3904
7224,3898
7225,3909
7226,3908
7227,3908
7228,3906
7229,3902
7230,3897
7231,3894
7232,3894
7233,3897
7234,3902
7235,3899
7236,3894
7237,3894
7238,3920
7239,3900
7240,3899
7241,3899
7242,3899
7243,3897
7244,3898
7245,3908
7246,3900
7247,3900
7248,3898
7249,3898
7250,3884
7251,3903
7252,3903
7253,3888
7254,3893
7255,3902
7256,3902
7257,3896
7258,3894
7259,3906
7260,3893
7261,3893
7262,3893
7263,3885
7264,3897
7265,3897
7266,3897
7267,3896
7268,3891
7269,3898
7270,3893
7271,3893
7272,3899
7273,3898
7274,3891
7275,3890
7276,3890
7277,3893
7278,3896
7279,3895
7280,3893
7281,3893
7282,3890
7283,3895
7284,3887
7285,3892
7286,3892
7287,3900
7288,3886
7289,3898
7290,3888
7291,3888
7292,3897
7293,3893
7294,3880
7295,3888
7296,3888
7297,3899
7298,3895
7299,3900
7300,3900
7301,3887
7302,3895
7303,3897
7304,3900
7305,3900
7306,3901
7307,3892
7308,3888
7309,3894
7310,3894
7311,3885
7312,3902
7313,3889
7314,3895
7315,3895
7316,3889
7317,3894
7318,3897
7319,3896
7320,3896
7321,3894
7322,3901
7323,3900
7324,3904
7325,3904
7326,3896
7327,3899
7328,3899
7329,3887
7330,3887
7331,3903
7332,3907
7333,3883
7334,3908
7335,3908
7336,3903
7337,3910
7338,3905
7339,3903
7340,3903
7341,3904
7342,3913
7343,3906
7344,3906
7345,3900
7346,3907
7347,3915
7348,3905
7349,3905
7350,3908
7351,3908
7352,3912
7353,3909
7354,3909
7355,3905
7356,3902
7357,3902
7358,3901
7359,3901
7360,3898
7361,3902
7362,3895
7363,3899
7364,3899
7365,3899
7366,3896
7367,3893
7368,3886
7369,3886
7370,3890
7371,3882
7372,3889
7373,3882
7374,3882
7375,3887
7376,3886
7377,3878
7378,3878
7379,3878
7380,3878
7381,3873
7382,3871
7383,3870
7384,3870
7385,3866
7386,3869
7387,3866
7388,3866
7389,3869
7390,3861
7391,3868
7392,3866
7393,3866
7394,3853
7395,3857
7396,3844
7397,3853
7398,3853
7399,3862
7400,3853
7401,3851
7402,3856
7403,3856
7404,3841
7405,3852
7406,3850
7407,3847
7408,3847
7409,3839
7410,3851
7411,3851
7412,3849
7413,3849
7414,3851
7415,3848
7416,3851
7417,3850
7418,3850
7419,3849
7420,3851
7421,3848
7422,3846
7423,3846
7424,3851
7425,3856
7426,3843
7427,3848
7428,3848
7429,3856
7430,3853
7431,3860
7432,3860
7433,3862
7434,3851
7435,3852
7436,3851
7437,3851
7438,3849
7439,3851
7440,3858
7441,3852
7442,3852
7443,3854
7444,3849
7445,3855
7446,3853
7447,3853
7448,3836
7449,3863
7450,3856
7451,3850
7452,3850
7453,3854
7454,3863
7455,3855
7456,3855
7457,3855
7458,3857
7459,3858
7460,3855
7461,3848
7462,3848
7463,3876
7464,3852
7465,3855
7466,3856
7467,3856
7468,3852
7469,3859
7470,3847
7471,3862
7472,3862
7473,3853
7474,3864
7475,3851
7476,3857
7477,3857
7478,3859
7479,3852
7480,3854
7481,3854
7482,3859
7483,3857
7484,3861
7485,3860
7486,3860
7487,3860
7488,3855
7489,3863
7490,3859
7491,3859
7492,3854
7493,3860
7494,3865
7495,3864
7496,3864
7497,3853
7498,3864
7499,3859
7500,3860
7501,3860
7502,3849
7503,3854
7504,3862
7505,3849
7506,3849
7507,3858
7508,3864
7509,3856
7510,3861
7511,3861
7512,3855
7513,3858
7514,3860
7515,3854
7516,3854
7517,3860
7518,3861
7519,3861
7520,3862
7521,3862
7522,3859
7523,3852
7524,3859
7525,3859
7526,3855
7527,3859
7528,3863
7529,3865
7530,3865
7531,3860
7532,3857
7533,3854
7534,3848
7535,3848
7536,3860
7537,3861
7538,3865
7539,3853
7540,3853
7541,3857
7542,3851
7543,3854
7544,3851
7545,3851
7546,3846
7547,3856
7548,3854
7549,3849
7550,3849
7551,3848
7552,3847
7553,3849
7554,3821
7555,3821
7556,3852
7557,3852
7558,3850
7559,3850
7560,3850
7561,3849
7562,3850
7563,3846
7564,3848
7565,3848
7566,3841
7567,3844
7568,3852
7569,3852
7570,3844
7571,3851
7572,3854
7573,3851
7574,3851
7575,3851
7576,3841
7577,3838
7578,3845
7579,3845
7580,3840
7581,3847
7582,3835
7583,3841
7584,3841
7585,3849
7586,3848
7587,3843
7588,3839
7589,3839
7590,3846
7591,3843
7592,3844
7593,3844
7594,3844
7595,3850
7596,3847
7597,3850
7598,3832
7599,3832
7600,3841
7601,3847
7602,3851
7603,3849
7604,3849
7605,3851
7606,3850
7607,3847
7608,3867
7609,3867
7610,3846
7611,3846
7612,3854
7613,3854
7614,3849
7615,3843
7616,3856
7617,3861
7618,3861
7619,3851
7620,3849
7621,3840
7622,3846
7623,3846
7624,3842
7625,3852
7626,3841
7627,3852
7628,3852
7629,3846
7630,3851
7631,3847
7632,3857
7633,3857
7634,3848
7635,3852
7636,3853
7637,3855
7638,3855
7639,3853
7640,3862
7641,3859
7642,3863
7643,3863
7644,3852
7645,3860
7646,3855
7647,3854
7648,3854
7649,3863
7650,3860
7651,3860
7652,3856
7653,3856
7654,3856
7655,3843
7656,3852
7657,3852
7658,3851
7659,3850
7660,3865
7661,3853
7662,3853
7663,3849
7664,3841
7665,3843
7666,3845
7667,3845
7668,3842
7669,3847
7670,3832
7671,3833
7672,3833
7673,3823
7674,3826
7675,3828
7676,3813
7677,3813
7678,3821
7679,3820
7680,3816
7681,3809
7682,3809
7683,3812
7684,3805
7685,3810
7686,3805
7687,3805
7688,3817
7689,3803
7690,3798
7691,3791
7692,3791
7693,3796
7694,3796
7695,3793
7696,3783
7697,3783
7698,3797
7699,3788
7700,3779
7701,3779
7702,3777
7703,3793
7704,3787
7705,3774
7706,3774
7707,3781
7708,3768
7709,3785
7710,3779
7711,3779
7712,3770
7713,3776
7714,3768
7715,3773
7716,3773
7717,3762
7718,3770
7719,3761
7720,3761
7721,3761
7722,3772
7723,3753
7724,3775
7725,3762
7726,3762
7727,3763
7728,3772
7729,3763
7730,3763
7731,3763
7732,3760
7733,3762
7734,3777
7735,3758
7736,3758
7737,3737
7738,3761
7739,3756
7740,3765
7741,3765
7742,3753
7743,3761
7744,3750
7745,3750
7746,3760
7747,3761
7748,3747
7749,3751
7750,3751
7751,3749
7752,3744
7753,3751
7754,3753
7755,3753
7756,3739
7757,3736
7758,3743
7759,3746
7760,3746
7761,3746
7762,3740
7763,3743
7764,3753
7765,3753
7766,3746
7767,3740
7768,3741
7769,3741
7770,3741
7771,3751
7772,3749
7773,3737
7774,3736
7775,3736
7776,3741
7777,3740
7778,3737
7779,3721
7780,3721
7781,3736
7782,3738
7783,3734
7784,3733
7785,3733
7786,3732
7787,3727
7788,3734
7789,3734
7790,3720
7791,3745
7792,3736
7793,3730
7794,3730
7795,3730
7796,3725
7797,3733
7798,3731
7799,3731
7800,3732
7801,3729
7802,3723
7803,3736
7804,3736
7805,3726
7806,3713
7807,3717
7808,3724
7809,3724
7810,3713
7811,3725
7812,3714
7813,3722
7814,3722
7815,3724
7816,3714
7817,3716
7818,3707
7819,3707
7820,3708
7821,3718
7822,3701
7823,3699
7824,3699
7825,3710
7826,3713
7827,3702
7828,3709
7829,3709
7830,3700
7831,3698
7832,3718
7833,3712
7834,3712
7835,3699
7836,3703
7837,3701
7838,3701
7839,3702
7840,3698
7841,3699
7842,3707
7843,3707
7844,3699
7845,3691
7846,3689
7847,3711
7848,3711
7849,3698
7850,3689
7851,3690
7852,3691
7853,3691
7854,3695
7855,3694
7856,3707
7857,3699
7858,3699
7859,3683
7860,3700
7861,3706
7862,3696
7863,3696
7864,3688
7865,3698
7866,3692
7867,3689
7868,3689
7869,3706
7870,3696
7871,3700
7872,3697
7873,3697
7874,3694
7875,3702
7876,3698
7877,3704
7878,3704
7879,3689
7880,3704
7881,3701
7882,3701
7883,3698
7884,3696
7885,3702
7886,3701
7887,3701
7888,3696
7889,3702
7890,3701
7891,3699
7892,3699
7893,3697
7894,3695
7895,3697
7896,3703
7897,3703
7898,3702
7899,3707
7900,3710
7901,3699
7902,3699
7903,3702
7904,3709
7905,3709
7906,3704
7907,3704
7908,3702
7909,3716
7910,3714
7911,3707
7912,3707
7913,3719
7914,3714
7915,3711
7916,3702
7917,3702
7918,3722
7919,3705
7920,3722
7921,3711
7922,3711
7923,3716
7924,3719
7925,3704
7926,3704
7927,3725
7928,3719
7929,3733
7930,3727
7931,3727
7932,3720
7933,3705
7934,3725
7935,3713
7936,3713
7937,3727
7938,3725
7939,3722
7940,3729
7941,3729
7942,3720
7943,3731
7944,3728
7945,3724
7946,3724
7947,3728
7948,3731
7949,3730
7950,3726
7951,3726
7952,3731
7953,3736
7954,3733
7955,3738
7956,3738
7957,3739
7958,3747
7959,3739
7960,3734
7961,3734
7962,3740
7963,3736
7964,3744
7965,3736
7966,3736
7967,3750
7968,3748
7969,3743
7970,3743
7971,3736
7972,3738
7973,3742
7974,3748
7975,3748
7976,3735
7977,3739
7978,3736
7979,3746
7980,3746
7981,3732
7982,3730
7983,3727
7984,3730
7985,3730
7986,3730
7987,3722
7988,3726
7989,3723
7990,3723
7991,3724
7992,3715
7993,3720
7994,3713
7995,3713
7996,3713
7997,3716
7998,3706
7999,3706
8000,3706
8001,3705
8002,3698
8003,3700
8004,3689
8005,3689
8006,3698
8007,3692
8008,3704
8009,3688
8010,3688
8011,3689
8012,3684
8013,3692
8014,3692
8015,3690
8016,3683
8017,3693
8018,3675
8019,3675
8020,3678
8021,3678
8022,3681
8023,3677
8024,3677
8025,3675
8026,3672
8027,3678
8028,3671
8029,3671
8030,3674
8031,3664
8032,3669
8033,3673
8034,3673
8035,3675
8036,3673
8037,3665
8038,3670
8039,3670
8040,3663
8041,3672
8042,3666
8043,3668
8044,3668
8045,3665
8046,3670
8047,3660
8048,3659
8049,3659
8050,3663
8051,3660
8052,3660
8053,3659
8054,3659
8055,3662
8056,3660
8057,3657
8058,3657
8059,3675
8060,3665
8061,3672
8062,3664
8063,3664
8064,3671
8065,3654
8066,3664
8067,3656
8068,3656
8069,3663
8070,3641
8071,3640
8072,3643
8073,3643
8074,3651
8075,3656
8076,3653
8077,3651
8078,3651
8079,3659
8080,3650
8081,3654
8082,3655
8083,3655
8084,3654
8085,3649
8086,3653
8087,3656
8088,3656
8089,3649
8090,3653
8091,3643
8092,3641
8093,3641
8094,3648
8095,3654
8096,3650
8097,3655
8098,3655
8099,3639
8100,3643
8101,3650
8102,3650
8103,3636
8104,3648
8105,3646
8106,3637
8107,3637
8108,3641
8109,3635
8110,3639
8111,3645
8112,3645
8113,3633
8114,3640
8115,3639
8116,3635
8117,3635
8118,3643
8119,3632
8120,3637
8121,3631
8122,3631
8123,3637
8124,3639
8125,3638
8126,3632
8127,3632
8128,3628
8129,3633
8130,3624
8131,3633
8132,3633
8133,3617
8134,3625
8135,3623
8136,3623
8137,3623
8138,3630
8139,3631
8140,3630
8141,3618
8142,3618
8143,3622
8144,3625
8145,3629
8146,3629
8147,3625
8148,3626
8149,3627
8150,3615
8151,3615
8152,3622
8153,3622
8154,3624
8155,3622
8156,3622
8157,3626
8158,3621
8159,3626
8160,3625
8161,3625
8162,3627
8163,3625
8164,3627
8165,3627
8166,3627
8167,3626
8168,3629
8169,3629
8170,3625
8171,3625
8172,3629
8173,3634
8174,3631
8175,3630
8176,3630
8177,3632
8178,3644
8179,3638
8180,3639
8181,3639
8182,3639
8183,3637
8184,3635
8185,3631
8186,3631
8187,3647
8188,3634
8189,3641
8190,3637
8191,3637
8192,3636
8193,3643
8194,3640
8195,3640
8196,3640
8197,3642
8198,3639
8199,3644
8200,3644
8201,3647
8202,3644
8203,3661
8204,3659
8205,3659
8206,3649
8207,3649
8208,3654
8209,3652
8210,3652
8211,3657
8212,3646
8213,3659
8214,3656
8215,3656
8216,3641
8217,3652
8218,3649
8219,3657
8220,3657
8221,3666
8222,3657
8223,3658
8224,3660
8225,3660
8226,3667
8227,3666
8228,3657
8229,3635
8230,3635
8231,3666
8232,3658
8233,3669
8234,3662
8235,3662
8236,3670
8237,3656
8238,3664
8239,3664
8240,3675
8241,3660
8242,3671
8243,3669
8244,3669
8245,3669
8246,3659
8247,3670
8248,3674
8249,3674
8250,3672
8251,3669
8252,3669
8253,3667
8254,3667
8255,3674
8256,3673
8257,3673
8258,3675
8259,3675
8260,3677
8261,3684
8262,3682
8263,3682
8264,3682
8265,3682
8266,3685
8267,3672
8268,3663
8269,3663
8270,3676
8271,3692
8272,3672
8273,3685
8274,3685
8275,3683
8276,3688
8277,3685
8278,3692
8279,3692
8280,3685
8281,3682
8282,3689
8283,3689
8284,3698
8285,3689
8286,3695
8287,3685
8288,3685
8289,3698
8290,3684
8291,3690
8292,3679
8293,3679
8294,3675
8295,3683
8296,3654
8297,3679
8298,3679
8299,3667
8300,3673
8301,3669
8302,3672
8303,3672
8304,3663
8305,3657
8306,3658
8307,3653
8308,3653
8309,3648
8310,3656
8311,3641
8312,3648
8313,3648
8314,3638
8315,3648
8316,3626
8317,3635
8318,3635
8319,3643
8320,3621
8321,3631
8322,3624
8323,3624
8324,3627
8325,3619
8326,3621
8327,3621
8328,3612
8329,3616
8330,3614
8331,3606
8332,3606
8333,3606
8334,3593
8335,3597
8336,3602
8337,3602
8338,3606
8339,3596
8340,3622
8341,3595
8342,3595
8343,3594
8344,3599
8345,3592
8346,3590
8347,3590
8348,3594
8349,3590
8350,3597
8351,3596
8352,3596
8353,3588
8354,3586
8355,3588
8356,3584
8357,3584
8358,3586
8359,3587
8360,3583
8361,3586
8362,3586
8363,3588
8364,3582
8365,3583
8366,3585
8367,3585
8368,3578
8369,3588
8370,3582
8371,3582
8372,3577
8373,3580
8374,3579
8375,3553
8376,3553
8377,3571
8378,3567
8379,3576
8380,3568
8381,3568
8382,3567
8383,3570
8384,3573
8385,3572
8386,3572
8387,3586
8388,3568
8389,3575
8390,3583
8391,3583
8392,3569
8393,3581
8394,3578
8395,3571
8396,3571
8397,3573
8398,3575
8399,3574
8400,3575
8401,3575
8402,3577
8403,3580
8404,3575
8405,3574
8406,3574
8407,3583
8408,3576
8409,3578
8410,3580
8411,3580
8412,3572
8413,3579
8414,3582
8415,3582
8416,3581
8417,3582
8418,3584
8419,3582
8420,3582
8421,3583
8422,3583
8423,3587
8424,3580
8425,3580
8426,3588
8427,3581
8428,3594
8429,3608
8430,3608
8431,3588
8432,3594
8433,3598
8434,3590
8435,3590
8436,3591
8437,3589
8438,3602
8439,3593
8440,3593
8441,3600
8442,3601
8443,3603
8444,3597
8445,3597
8446,3607
8447,3615
8448,3608
8449,3603
8450,3603
8451,3607
8452,3606
8453,3610
8454,3608
8455,3608
8456,3628
8457,3607
8458,3612
8459,3612
8460,3619
8461,3605
8462,3635
8463,3619
8464,3619
8465,3621
8466,3620
8467,3627
8468,3627
8469,3627
8470,3621
8471,3628
8472,3622
8473,3628
8474,3628
8475,3626
8476,3625
8477,3639
8478,3632
8479,3632
8480,3633
8481,3632
8482,3637
8483,3634
8484,3634
8485,3642
8486,3643
8487,3642
8488,3637
8489,3637
8490,3642
8491,3642
8492,3648
8493,3640
8494,3640
8495,3642
8496,3648
8497,3646
8498,3644
8499,3644
8500,3644
8501,3648
8502,3657
8503,3657
8504,3643
8505,3658
8506,3658
8507,3646
8508,3646
8509,3656
8510,3651
8511,3662
8512,3669
8513,3669
8514,3656
8515,3648
8516,3658
8517,3665
8518,3665
8519,3656
8520,3658
8521,3654
8522,3665
8523,3665
8524,3670
8525,3673
8526,3670
8527,3672
8528,3672
8529,3671
8530,3682
8531,3677
8532,3688
8533,3688
8534,3692
8535,3689
8536,3681
8537,3683
8538,3683
8539,3681
8540,3687
8541,3679
8542,3680
8543,3680
8544,3696
8545,3683
8546,3684
8547,3684
8548,3684
8549,3690
8550,3686
8551,3691
8552,3691
8553,3695
8554,3689
8555,3702
8556,3689
8557,3689
8558,3688
8559,3686
8560,3694
8561,3698
8562,3698
8563,3694
8564,3693
8565,3706
8566,3697
8567,3697
8568,3705
8569,3699
8570,3711
8571,3702
8572,3702
8573,3707
8574,3701
8575,3720
8576,3695
8577,3695
8578,3708
8579,3713
8580,3702
8581,3702
8582,3702
8583,3716
8584,3705
8585,3712
8586,3707
8587,3707
8588,3705
8589,3715
8590,3716
8591,3711
8592,3711
8593,3724
8594,3711
8595,3713
8596,3713
8597,3724
8598,3712
8599,3719
8600,3708
8601,3708
8602,3709
8603,3724
8604,3714
8605,3712
8606,3712
8607,3711
8608,3719
8609,3710
8610,3705
8611,3705
8612,3700
8613,3706
8614,3691
8615,3689
8616,3689
8617,3693
8618,3691
8619,3688
8620,3685
8621,3685
8622,3684
8623,3681
8624,3667
8625,3670
8626,3670
8627,3670
8628,3675
8629,3663
8630,3666
8631,3666
8632,3658
8633,3652
8634,3645
8635,3650
8636,3650
8637,3649
8638,3639
8639,3636
8640,3636
8641,3641
8642,3639
8643,3635
8644,3632
8645,3632
8646,3631
8647,3619
8648,3622
8649,3620
8650,3620
8651,3617
8652,3622
8653,3623
8654,3627
8655,3627
8656,3612
8657,3609
8658,3609
8659,3608
8660,3608
8661,3605
8662,3609
8663,3599
8664,3600
8665,3600
8666,3598
8667,3582
8668,3601
8669,3602
8670,3602
8671,3600
8672,3593
8673,3588
8674,3589
8675,3589
8676,3596
8677,3594
8678,3600
8679,3595
8680,3595
8681,3599
8682,3590
8683,3592
8684,3592
8685,3596
8686,3586
8687,3599
8688,3596
8689,3596
8690,3594
8691,3589
8692,3596
8693,3595
8694,3595
8695,3598
8696,3597
8697,3596
8698,3596
8699,3596
8700,3590
8701,3595
8702,3592
8703,3587
8704,3587
8705,3595
8706,3602
8707,3595
8708,3598
8709,3598
8710,3586
8711,3582
8712,3592
8713,3592
8714,3592
8715,3596
8716,3601
8717,3587
8718,3589
8719,3589
8720,3600
8721,3603
8722,3587
8723,3590
8724,3590
8725,3593
8726,3589
8727,3593
8728,3593
8729,3597
8730,3596
8731,3592
8732,3583
8733,3583
8734,3601
8735,3590
8736,3606
8737,3582
8738,3582
8739,3601
8740,3597
8741,3597
8742,3608
8743,3608
8744,3586
8745,3588
8746,3576
8747,3595
8748,3595
8749,3598
8750,3605
8751,3590
8752,3595
8753,3595
8754,3599
8755,3605
8756,3595
8757,3594
8758,3594
8759,3596
8760,3598
8761,3600
8762,3599
8763,3599
8764,3596
8765,3597
8766,3586
8767,3592
8768,3592
8769,3597
8770,3602
8771,3595
8772,3595
8773,3599
8774,3586
8775,3597
8776,3592
8777,3592
8778,3595
8779,3600
8780,3598
8781,3604
8782,3604
8783,3589
8784,3593
8785,3592
8786,3601
8787,3601
8788,3607
8789,3581
8790,3594
8791,3582
8792,3582
8793,3578
8794,3600
8795,3586
8796,3590
8797,3590
8798,3589
8799,3595
8800,3603
8801,3589
8802,3589
8803,3590
8804,3587
8805,3583
8806,3580
8807,3580
8808,3604
8809,3586
8810,3586
8811,3590
8812,3590
8813,3579
8814,3585
8815,3585
8816,3585
8817,3587
8818,3587
8819,3594
8820,3579
8821,3579
8822,3581
8823,3590
8824,3593
8825,3593
8826,3593
8827,3590
8828,3583
8829,3594
8830,3586
8831,3586
8832,3593
8833,3586
8834,3593
8835,3579
8836,3579
8837,3584
8838,3590
8839,3584
8840,3584
8841,3584
8842,3588
8843,3594
8844,3584
8845,3585
8846,3585
8847,3585
8848,3592
8849,3590
8850,3583
8851,3583
8852,3592
8853,3579
8854,3581
8855,3592
8856,3592
8857,3587
8858,3576
8859,3604
8860,3604
8861,3593
8862,3588
8863,3602
8864,3589
8865,3589
8866,3590
8867,3596
8868,3590
8869,3584
8870,3584
8871,3583
8872,3592
8873,3594
8874,3594
8875,3594
8876,3596
8877,3597
8878,3602
8879,3599
8880,3599
8881,3597
8882,3603
8883,3600
8884,3606
8885,3606
8886,3601
8887,3605
8888,3603
8889,3604
8890,3604
8891,3601
8892,3603
8893,3619
8894,3601
8895,3601
8896,3621
8897,3613
8898,3627
8899,3621
8900,3621
8901,3624
8902,3620
8903,3618
8904,3618
8905,3619
8906,3623
8907,3629
8908,3623
8909,3623
8910,3622
8911,3622
8912,3632
8913,3622
8914,3622
8915,3619
8916,3627
8917,3633
8918,3627
8919,3627
8920,3626
8921,3645
8922,3633
8923,3630
8924,3630
8925,3638
8926,3634
8927,3627
8928,3618
8929,3618
8930,3641
8931,3626
8932,3619
8933,3626
8934,3626
8935,3620
8936,3620
8937,3609
8938,3619
8939,3619
8940,3609
8941,3608
8942,3610
8943,3612
8944,3612
8945,3613
8946,3632
8947,3609
8948,3609
8949,3614
8950,3605
8951,3613
8952,3600
8953,3600
8954,3605
8955,3598
8956,3607
8957,3604
8958,3604
8959,3600
8960,3603
8961,3598
8962,3594
8963,3594
8964,3594
8965,3586
8966,3602
8967,3598
8968,3598
8969,3592
8970,3592
8971,3581
8972,3584
8973,3584
8974,3591
8975,3595
8976,3589
8977,3588
8978,3588
8979,3591
8980,3597
8981,3589
8982,3591
8983,3591
8984,3588
8985,3578
8986,3596
8987,3579
8988,3579
8989,3591
8990,3594
8991,3593
8992,3593
8993,3597
8994,3584
8995,3591
8996,3584
8997,3584
8998,3593
8999,3592
9000,3598
9001,3594
9002,3594
9003,3597
9004,3585
9005,3591
9006,3597
9007,3597
9008,3594
9009,3591
9010,3607
9011,3600
9012,3600
9013,3607
9014,3592
9015,3598
9016,3602
9017,3602
9018,3595
9019,3599
9020,3596
9021,3598
9022,3598
9023,3600
9024,3599
9025,3604
9026,3604
9027,3604
9028,3595
9029,3601
9030,3604
9031,3607
9032,3607
9033,3598
9034,3606
9035,3599
9036,3599
9037,3604
9038,3590
9039,3610
9040,3606
9041,3606
9042,3596
9043,3604
9044,3616
9045,3606
9046,3606
9047,3609
9048,3603
9049,3605
9050,3612
9051,3612
9052,3609
9053,3610
9054,3612
9055,3598
9056,3598
9057,3618
9058,3615
9059,3604
9060,3605
9061,3605
9062,3608
9063,3622
9064,3621
9065,3610
9066,3610
9067,3617
9068,3602
9069,3623
9070,3615
9071,3615
9072,3611
9073,3617
9074,3617
9075,3613
9076,3613
9077,3620
9078,3633
9079,3618
9080,3618
9081,3610
9082,3615
9083,3612
9084,3610
9085,3610
9086,3614
9087,3613
9088,3612
9089,3604
9090,3604
9091,3614
9092,3625
9093,3611
9094,3611
9095,3611
9096,3619
9097,3612
9098,3617
9099,3606
9100,3606
9101,3610
9102,3620
9103,3611
9104,3598
9105,3598
9106,3613
9107,3616
9108,3600
9109,3606
9110,3606
9111,3612
9112,3624
9113,3612
9114,3618
9115,3618
9116,3617
9117,3605
9118,3612
9119,3612
9120,3610
9121,3611
9122,3612
9123,3611
9124,3611
9125,3618
9126,3614
9127,3611
9128,3609
9129,3609
9130,3625
9131,3607
9132,3611
9133,3613
9134,3613
9135,3617
9136,3610
9137,3615
9138,3620
9139,3620
9140,3608
9141,3631
9142,3610
9143,3622
9144,3622
9145,3622
9146,3623
9147,3622
9148,3620
9149,3620
9150,3620
9151,3620
9152,3620
9153,3625
9154,3625
9155,3621
9156,3633
9157,3628
9158,3642
9159,3642
9160,3629
9161,3627
9162,3625
9163,3625
9164,3613
9165,3626
9166,3628
9167,3625
9168,3625
9169,3628
9170,3624
9171,3628
9172,3631
9173,3631
9174,3626
9175,3627
9176,3635
9177,3635
9178,3635
9179,3624
9180,3633
9181,3625
9182,3629
9183,3629
9184,3621
9185,3644
9186,3636
9187,3639
9188,3639
9189,3633
9190,3642
9191,3635
9192,3646
9193,3646
9194,3632
9195,3644
9196,3634
9197,3640
9198,3640
9199,3647
9200,3640
9201,3640
9202,3657
9203,3657
9204,3656
9205,3652
9206,3644
9207,3644
9208,3649
9209,3654
9210,3656
9211,3651
9212,3651
9213,3661
9214,3650
9215,3664
9216,3653
9217,3653
9218,3656
9219,3653
9220,3656
9221,3653
9222,3653
9223,3657
9224,3655
9225,3653
9226,3650
9227,3650
9228,3645
9229,3641
9230,3638
9231,3644
9232,3644
9233,3632
9234,3631
9235,3636
9236,3625
9237,3625
9238,3638
9239,3632
9240,3624
9241,3625
9242,3625
9243,3627
9244,3619
9245,3619
9246,3615
9247,3615
9248,3604
9249,3611
9250,3598
9251,3598
9252,3605
9253,3597
9254,3605
9255,3599
9256,3599
9257,3592
9258,3590
9259,3595
9260,3591
9261,3591
9262,3592
9263,3562
9264,3592
9265,3586
9266,3586
9267,3589
9268,3584
9269,3570
9270,3576
9271,3576
9272,3579
9273,3569
9274,3581
9275,3574
9276,3574
9277,3572
9278,3569
9279,3565
9280,3567
9281,3567
9282,3561
9283,3573
9284,3564
9285,3560
9286,3560
9287,3571
9288,3564
9289,3558
9290,3568
9291,3568
9292,3563
9293,3564
9294,3561
9295,3561
9296,3564
9297,3557
9298,3564
9299,3549
9300,3549
9301,3548
9302,3549
9303,3562
9304,3559
9305,3559
9306,3547
9307,3561
9308,3546
9309,3553
9310,3553
9311,3552
9312,3532
9313,3546
9314,3542
9315,3542
9316,3542
9317,3540
9318,3544
9319,3545
9320,3545
9321,3542
9322,3551
9323,3544
9324,3546
9325,3546
9326,3546
9327,3550
9328,3546
9329,3533
9330,3533
9331,3538
9332,3546
9333,3542
9334,3542
9335,3542
9336,3542
9337,3543
9338,3547
9339,3547
9340,3535
9341,3537
9342,3558
9343,3549
9344,3549
9345,3553
9346,3539
9347,3547
9348,3536
9349,3536
9350,3542
9351,3542
9352,3542
9353,3529
9354,3529
9355,3539
9356,3542
9357,3535
9358,3539
9359,3539
9360,3543
9361,3535
9362,3537
9363,3527
9364,3527
9365,3541
9366,3525
9367,3538
9368,3527
9369,3527
9370,3527
9371,3536
9372,3528
9373,3532
9374,3532
9375,3529
9376,3521
9377,3536
9378,3525
9379,3525
9380,3532
9381,3532
9382,3526
9383,3526
9384,3533
9385,3540
9386,3529
9387,3531
9388,3531
9389,3532
9390,3524
9391,3519
9392,3529
9393,3529
9394,3523
9395,3536
9396,3519
9397,3529
9398,3529
9399,3522
9400,3531
9401,3529
9402,3538
9403,3538
9404,3531
9405,3524
9406,3531
9407,3523
9408,3523
9409,3520
9410,3547
9411,3521
9412,3531
9413,3531
9414,3517
9415,3532
9416,3529
9417,3530
9418,3530
9419,3531
9420,3530
9421,3531
9422,3531
9423,3531
9424,3525
9425,3539
9426,3531
9427,3531
9428,3526
9429,3537
9430,3545
9431,3533
9432,3533
9433,3533
9434,3529
9435,3541
9436,3542
9437,3542
9438,3538
9439,3537
9440,3537
9441,3539
9442,3539
9443,3537
9444,3541
9445,3542
9446,3547
9447,3547
9448,3543
9449,3545
9450,3549
9451,3557
9452,3557
9453,3545
9454,3552
9455,3556
9456,3548
9457,3548
9458,3550
9459,3560
9460,3553
9461,3555
9462,3555
9463,3574
9464,3554
9465,3561
9466,3560
9467,3560
9468,3557
9469,3563
9470,3565
9471,3568
9472,3568
9473,3568
9474,3572
9475,3568
9476,3568
9477,3575
9478,3572
9479,3582
9480,3583
9481,3583
9482,3579
9483,3576
9484,3588
9485,3583
9486,3583
9487,3588
9488,3588
9489,3584
9490,3599
9491,3599
9492,3592
9493,3603
9494,3599
9495,3592
9496,3592
9497,3601
9498,3597
9499,3597
9500,3603
9501,3603
9502,3606
9503,3607
9504,3611
9505,3618
9506,3618
9507,3627
9508,3614
9509,3617
9510,3619
9511,3619
9512,3628
9513,3613
9514,3620
9515,3615
9516,3615
9517,3623
9518,3628
9519,3625
9520,3625
9521,3628
9522,3623
9523,3632
9524,3626
9525,3626
9526,3633
9527,3622
9528,3630
9529,3629
9530,3629
9531,3631
9532,3633
9533,3630
9534,3620
9535,3620
9536,3612
9537,3626
9538,3629
9539,3625
9540,3625
9541,3628
9542,3630
9543,3610
9544,3612
9545,3612
9546,3618
9547,3616
9548,3609
9549,3610
9550,3610
9551,3610
9552,3598
9553,3604
9554,3587
9555,3587
9556,3600
9557,3592
9558,3595
9559,3590
9560,3590
9561,3590
9562,3584
9563,3590
9564,3590
9565,3579
9566,3581
9567,3575
9568,3578
9569,3578
9570,3583
9571,3574
9572,3582
9573,3573
9574,3573
9575,3576
9576,3570
9577,3569
9578,3568
9579,3568
9580,3578
9581,3567
9582,3572
9583,3568
9584,3568
9585,3567
9586,3567
9587,3561
9588,3553
9589,3553
9590,3561
9591,3563
9592,3555
9593,3559
9594,3559
9595,3559
9596,3558
9597,3556
9598,3551
9599,3551
9600,3552
9601,3559
9602,3547
9603,3560
9604,3560
9605,3556
9606,3555
9607,3550
9608,3550
9609,3577
9610,3556
9611,3551
9612,3543
9613,3543
9614,3548
9615,3540
9616,3544
9617,3542
9618,3542
9619,3550
9620,3545
9621,3536
9622,3537
9623,3537
9624,3549
9625,3546
9626,3543
9627,3539
9628,3539
9629,3532
9630,3546
9631,3531
9632,3526
9633,3526
9634,3533
9635,3545
9636,3532
9637,3539
9638,3539
9639,3541
9640,3542
9641,3541
9642,3537
9643,3537
9644,3540
9645,3540
9646,3534
9647,3539
9648,3539
9649,3539
9650,3532
9651,3540
9652,3540
9653,3534
9654,3538
9655,3531
9656,3530
9657,3530
9658,3527
9659,3547
9660,3531
9661,3532
9662,3532
9663,3540
9664,3538
9665,3536
9666,3539
9667,3539
9668,3538
9669,3538
9670,3537
9671,3544
9672,3544
9673,3539
9674,3542
9675,3542
9676,3538
9677,3538
9678,3539
9679,3541
9680,3532
9681,3533
9682,3533
9683,3539
9684,3546
9685,3530
9686,3545
9687,3545
9688,3553
9689,3542
9690,3535
9691,3537
9692,3537
9693,3537
9694,3537
9695,3530
9696,3530
9697,3527
9698,3540
9699,3546
9700,3527
9701,3527
9702,3549
9703,3537
9704,3539
9705,3546
9706,3546
9707,3539
9708,3539
9709,3559
9710,3546
9711,3546
9712,3547
9713,3546
9714,3547
9715,3545
9716,3545
9717,3552
9718,3550
9719,3548
9720,3557
9721,3557
9722,3549
9723,3557
9724,3550
9725,3557
9726,3557
9727,3554
9728,3561
9729,3557
9730,3554
9731,3554
9732,3554
9733,3554
9734,3564
9735,3561
9736,3561
9737,3563
9738,3557
9739,3553
9740,3553
9741,3568
9742,3568
9743,3570
9744,3563
9745,3563
9746,3568
9747,3565
9748,3572
9749,3571
9750,3571
9751,3572
9752,3574
9753,3584
9754,3590
9755,3590
9756,3575
9757,3577
9758,3584
9759,3592
9760,3592
9761,3581
9762,3590
9763,3585
9764,3577
9765,3577
9766,3592
9767,3581
9768,3588
9769,3590
9770,3590
9771,3598
9772,3598
9773,3595
9774,3602
9775,3602
9776,3584
9777,3600
9778,3596
9779,3581
9780,3581
9781,3596
9782,3600
9783,3599
9784,3599
9785,3602
9786,3602
9787,3604
9788,3602
9789,3602
9790,3603
9791,3592
9792,3611
9793,3617
9794,3617
9795,3616
9796,3599
9797,3620
9798,3614
9799,3614
9800,3615
9801,3601
9802,3625
9803,3611
9804,3611
9805,3610
9806,3614
9807,3628
9808,3628
9809,3628
9810,3620
9811,3632
9812,3622
9813,3627
9814,3627
9815,3629
9816,3631
9817,3639
9818,3629
9819,3629
9820,3634
9821,3642
9822,3634
9823,3639
9824,3639
9825,3638
9826,3641
9827,3642
9828,3642
9829,3641
9830,3643
9831,3641
9832,3627
9833,3627
9834,3648
9835,3633
9836,3637
9837,3637
9838,3637
9839,3640
9840,3628
9841,3634
9842,3622
9843,3622
9844,3628
9845,3618
9846,3615
9847,3612
9848,3612
9849,3610
9850,3613
9851,3613
9852,3605
9853,3605
9854,3601
9855,3599
9856,3597
9857,3590
9858,3590
9859,3596
9860,3589
9861,3586
9862,3577
9863,3577
9864,3575
9865,3575
9866,3572
9867,3567
9868,3567
9869,3567
9870,3571
9871,3559
9872,3552
9873,3552
9874,3563
9875,3554
9876,3553
9877,3553
9878,3551
9879,3549
9880,3551
9881,3548
9882,3548
9883,3543
9884,3542
9885,3546
9886,3536
9887,3536
9888,3538
9889,3538
9890,3539
9891,3539
9892,3539
9893,3530
9894,3532
9895,3541
9896,3529
9897,3529
9898,3528
9899,3532
9900,3527
9901,3537
9902,3537
9903,3521
9904,3525
9905,3522
9906,3523
9907,3523
9908,3518
9909,3522
9910,3508
9911,3513
9912,3513
9913,3523
9914,3521
9915,3518
9916,3524
9917,3524
9918,3516
9919,3526
9920,3518
9921,3518
9922,3509
9923,3526
9924,3520
9925,3506
9926,3506
9927,3511
9928,3509
9929,3516
9930,3519
9931,3519
9932,3517
9933,3515
9934,3510
9935,3512
9936,3512
9937,3507
9938,3513
9939,3519
9940,3518
9941,3518
9942,3530
9943,3516
9944,3517
9945,3519
9946,3519
9947,3519
9948,3516
9949,3522
9950,3516
9951,3516
9952,3519
9953,3527
9954,3517
9955,3525
9956,3525
9957,3524
9958,3523
9959,3529
9960,3531
9961,3531
9962,3524
9963,3531
9964,3546
9965,3546
9966,3535
9967,3532
9968,3547
9969,3537
9970,3537
9971,3526
9972,3529
9973,3538
9974,3550
9975,3550
9976,3543
9977,3553
9978,3545
9979,3550
9980,3550
9981,3545
9982,3550
9983,3549
9984,3543
9985,3543
9986,3550
9987,3554
9988,3555
9989,3557
9990,3557
9991,3557
9992,3556
9993,3562
9994,3561
9995,3561
9996,3562
9997,3568
9998,3569
9999,3564
10000,3564
10001,3570
10002,3574
10003,3562
10004,3564
10005,3564
10006,3576
10007,3579
10008,3576
10009,3576
10010,3586
10011,3581
10012,3578
10013,3582
10014,3582
10015,3580
10016,3582
10017,3588
10018,3592
10019,3592
10020,3591
10021,3583
10022,3593
10023,3582
10024,3582
10025,3592
10026,3591
10027,3599
10028,3594
10029,3594
10030,3602
10031,3605
10032,3594
10033,3608
10034,3608
10035,3605
10036,3609
10037,3601
10038,3603
10039,3603
10040,3612
10041,3607
10042,3612
10043,3611
10044,3611
10045,3619
10046,3619
10047,3624
10048,3622
10049,3622
10050,3620
10051,3617
10052,3616
10053,3616
10054,3628
10055,3618
10056,3629
10057,3625
10058,3625
10059,3641
10060,3632
10061,3635
10062,3628
10063,3628
10064,3631
10065,3637
10066,3640
10067,3643
10068,3643
10069,3645
10070,3649
10071,3631
10072,3643
10073,3643
10074,3654
10075,3645
10076,3649
10077,3644
10078,3644
10079,3646
10080,3652
10081,3643
10082,3646
10083,3646
10084,3664
10085,3656
10086,3650
10087,3652
10088,3652
10089,3652
10090,3667
10091,3657
10092,3662
10093,3662
10094,3656
10095,3659
10096,3660
10097,3660
10098,3664
10099,3662
10100,3665
10101,3666
10102,3666
10103,3667
10104,3664
10105,3664
10106,3671
10107,3671
10108,3670
10109,3667
10110,3676
10111,3675
10112,3675
10113,3673
10114,3672
10115,3677
10116,3674
10117,3674
10118,3669
10119,3678
10120,3678
10121,3682
10122,3682
10123,3684
10124,3687
10125,3698
10126,3679
10127,3679
10128,3666
10129,3685
10130,3680
10131,3678
10132,3678
10133,3681
10134,3693
10135,3679
10136,3682
10137,3682
10138,3671
10139,3675
10140,3674
10141,3674
10142,3669
10143,3672
10144,3666
10145,3678
